# Label: Trigno sensor 14: EMG 14 Sampling frequency: 1,925926e+003 Number of points: 202020 X start: 0,000000e+000 Unit: Volts Domain Unit: s
# Label: Trigno sensor 14: Acc 14.X Sampling frequency: 1,481481e+002 Number of points: 15540 X start: 0,000000e+000 Unit: g Domain Unit: s
# Label: Trigno sensor 14: Acc 14.Y Sampling frequency: 1,481481e+002 Number of points: 15540 X start: 0,000000e+000 Unit: g Domain Unit: s
# Label: Trigno sensor 14: Acc 14.Z Sampling frequency: 1,481481e+002 Number of points: 15540 X start: 0,000000e+000 Unit: g Domain Unit: s
# Start Trigger Method: None
# Stop Trigger Method: None
# Use Camera: NO
# Video File Path: 
# System Gain: 3,000000e+002
# A/D card Gain: 1,000000e+000
# Bit Resolution: -1,000000e+000
# Bias: 0,000000e+000
# High pass cutoff frequency: 0,000000e+000
# Low pass cutoff frequency: 0,000000e+000
# System Gain: 8,360000e-002
# A/D card Gain: 1,000000e+000
# Bit Resolution: -1,000000e+000
# Bias: 0,000000e+000
# High pass cutoff frequency: 0,000000e+000
# Low pass cutoff frequency: 0,000000e+000
# System Gain: 8,360000e-002
# A/D card Gain: 1,000000e+000
# Bit Resolution: -1,000000e+000
# Bias: 0,000000e+000
# High pass cutoff frequency: 0,000000e+000
# Low pass cutoff frequency: 0,000000e+000
# System Gain: 8,360000e-002
# A/D card Gain: 1,000000e+000
# Bit Resolution: -1,000000e+000
# Bias: 0,000000e+000
# High pass cutoff frequency: 0,000000e+000
# Low pass cutoff frequency: 0,000000e+000
X [s],Trigno sensor 14: EMG 14 [Volts],X [s],Trigno sensor 14: Acc 14.X [g],X [s],Trigno sensor 14: Acc 14.Y [g],X [s],Trigno sensor 14: Acc 14.Z [g]
0,00000e+000,0,00000e+000,0,00000e+000,0,00000e+000,0,00000e+000,0,00000e+000,0,00000e+000,0,00000e+000
5,19231e-004,0,00000e+000,6,75000e-003,0,00000e+000,6,75000e-003,0,00000e+000,6,75000e-003,0,00000e+000
1,03846e-003,0,00000e+000,1,35000e-002,0,00000e+000,1,35000e-002,0,00000e+000,1,35000e-002,0,00000e+000
1,55769e-003,0,00000e+000,2,02500e-002,0,00000e+000,2,02500e-002,0,00000e+000,2,02500e-002,0,00000e+000
2,07692e-003,0,00000e+000,2,70000e-002,0,00000e+000,2,70000e-002,0,00000e+000,2,70000e-002,0,00000e+000
2,59615e-003,0,00000e+000,3,37500e-002,0,00000e+000,3,37500e-002,0,00000e+000,3,37500e-002,0,00000e+000
3,11538e-003,0,00000e+000,4,05000e-002,0,00000e+000,4,05000e-002,0,00000e+000,4,05000e-002,0,00000e+000
3,63462e-003,0,00000e+000,4,72500e-002,0,00000e+000,4,72500e-002,0,00000e+000,4,72500e-002,0,00000e+000
4,15385e-003,0,00000e+000,5,40000e-002,-2,35150e+000,5,40000e-002,1,31067e+000,5,40000e-002,-2,89118e+000
4,67308e-003,0,00000e+000,6,07500e-002,-2,27440e+000,6,07500e-002,1,34922e+000,6,07500e-002,-2,85263e+000
5,19231e-003,0,00000e+000,6,75000e-002,-2,19730e+000,6,75000e-002,1,27212e+000,6,75000e-002,-2,77554e+000
5,71154e-003,0,00000e+000,7,42500e-002,-2,15875e+000,7,42500e-002,1,23357e+000,7,42500e-002,-2,69844e+000
6,23077e-003,0,00000e+000,8,10000e-002,-2,15875e+000,8,10000e-002,1,15647e+000,8,10000e-002,-2,58279e+000
6,75000e-003,0,00000e+000,8,77500e-002,-2,15875e+000,8,77500e-002,1,19502e+000,8,77500e-002,-2,54424e+000
7,26923e-003,0,00000e+000,9,45000e-002,-2,12020e+000,9,45000e-002,1,23357e+000,9,45000e-002,-2,62134e+000
7,78846e-003,0,00000e+000,1,01250e-001,-2,08165e+000,1,01250e-001,1,27212e+000,1,01250e-001,-2,69844e+000
8,30769e-003,0,00000e+000,1,08000e-001,-2,12020e+000,1,08000e-001,1,27212e+000,1,08000e-001,-2,77554e+000
8,82692e-003,0,00000e+000,1,14750e-001,-2,23585e+000,1,14750e-001,1,19502e+000,1,14750e-001,-2,69844e+000
9,34615e-003,0,00000e+000,1,21500e-001,-2,35150e+000,1,21500e-001,1,15647e+000,1,21500e-001,-2,62134e+000
9,86538e-003,0,00000e+000,1,28250e-001,-2,42859e+000,1,28250e-001,1,23357e+000,1,28250e-001,-2,46714e+000
1,03846e-002,0,00000e+000,1,35000e-001,-2,35150e+000,1,35000e-001,1,23357e+000,1,35000e-001,-2,39004e+000
1,09038e-002,0,00000e+000,1,41750e-001,-2,27440e+000,1,41750e-001,1,27212e+000,1,41750e-001,-2,35150e+000
1,14231e-002,0,00000e+000,1,48500e-001,-2,23585e+000,1,48500e-001,1,31067e+000,1,48500e-001,-2,35150e+000
1,19423e-002,0,00000e+000,1,55250e-001,-2,19730e+000,1,55250e-001,1,42632e+000,1,55250e-001,-2,31295e+000
1,24615e-002,0,00000e+000,1,62000e-001,-2,19730e+000,1,62000e-001,1,50342e+000,1,62000e-001,-2,31295e+000
1,29808e-002,0,00000e+000,1,68750e-001,-2,19730e+000,1,68750e-001,1,54196e+000,1,68750e-001,-2,27440e+000
1,35000e-002,0,00000e+000,1,75500e-001,-2,19730e+000,1,75500e-001,1,54196e+000,1,75500e-001,-2,23585e+000
1,40192e-002,0,00000e+000,1,82250e-001,-2,23585e+000,1,82250e-001,1,54196e+000,1,82250e-001,-2,23585e+000
1,45385e-002,0,00000e+000,1,89000e-001,-2,27440e+000,1,89000e-001,1,54196e+000,1,89000e-001,-2,23585e+000
1,50577e-002,0,00000e+000,1,95750e-001,-2,27440e+000,1,95750e-001,1,58051e+000,1,95750e-001,-2,31295e+000
1,55769e-002,0,00000e+000,2,02500e-001,-2,27440e+000,2,02500e-001,1,61906e+000,2,02500e-001,-2,39004e+000
1,60962e-002,0,00000e+000,2,09250e-001,-2,19730e+000,2,09250e-001,1,73471e+000,2,09250e-001,-2,31295e+000
1,66154e-002,0,00000e+000,2,16000e-001,-2,12020e+000,2,16000e-001,1,85036e+000,2,16000e-001,-2,27440e+000
1,71346e-002,0,00000e+000,2,22750e-001,-2,12020e+000,2,22750e-001,1,85036e+000,2,22750e-001,-2,15875e+000
1,76538e-002,0,00000e+000,2,29500e-001,-2,15875e+000,2,29500e-001,1,81181e+000,2,29500e-001,-2,19730e+000
1,81731e-002,0,00000e+000,2,36250e-001,-2,27440e+000,2,36250e-001,1,85036e+000,2,36250e-001,-2,19730e+000
1,86923e-002,0,00000e+000,2,43000e-001,-2,35150e+000,2,43000e-001,1,85036e+000,2,43000e-001,-2,27440e+000
1,92115e-002,0,00000e+000,2,49750e-001,-2,39004e+000,2,49750e-001,1,88891e+000,2,49750e-001,-2,31295e+000
1,97308e-002,0,00000e+000,2,56500e-001,-2,35150e+000,2,56500e-001,1,92746e+000,2,56500e-001,-2,35150e+000
2,02500e-002,0,00000e+000,2,63250e-001,-2,27440e+000,2,63250e-001,2,00455e+000,2,63250e-001,-2,27440e+000
2,07692e-002,0,00000e+000,2,70000e-001,-2,08165e+000,2,70000e-001,2,08165e+000,2,70000e-001,-2,23585e+000
2,12885e-002,0,00000e+000,2,76750e-001,-1,96600e+000,2,76750e-001,2,12020e+000,2,76750e-001,-2,23585e+000
2,18077e-002,0,00000e+000,2,83500e-001,-1,96600e+000,2,83500e-001,2,04310e+000,2,83500e-001,-2,19730e+000
2,23269e-002,0,00000e+000,2,90250e-001,-1,96600e+000,2,90250e-001,1,92746e+000,2,90250e-001,-2,23585e+000
2,28462e-002,0,00000e+000,2,97000e-001,-2,04310e+000,2,97000e-001,1,88891e+000,2,97000e-001,-2,35150e+000
2,33654e-002,0,00000e+000,3,03750e-001,-2,15875e+000,3,03750e-001,1,81181e+000,3,03750e-001,-2,42859e+000
2,38846e-002,0,00000e+000,3,10500e-001,-2,31295e+000,3,10500e-001,1,69616e+000,3,10500e-001,-2,54424e+000
2,44038e-002,0,00000e+000,3,17250e-001,-2,35150e+000,3,17250e-001,1,58051e+000,3,17250e-001,-2,58279e+000
2,49231e-002,0,00000e+000,3,24000e-001,-2,39004e+000,3,24000e-001,1,46487e+000,3,24000e-001,-2,65989e+000
2,54423e-002,0,00000e+000,3,30750e-001,-2,35150e+000,3,30750e-001,1,31067e+000,3,30750e-001,-2,73699e+000
2,59615e-002,0,00000e+000,3,37500e-001,-2,39004e+000,3,37500e-001,1,15647e+000,3,37500e-001,-2,89118e+000
2,64808e-002,0,00000e+000,3,44250e-001,-2,42859e+000,3,44250e-001,9,25179e-001,3,44250e-001,-3,00683e+000
2,70000e-002,0,00000e+000,3,51000e-001,-2,46714e+000,3,51000e-001,7,70982e-001,3,51000e-001,-3,08393e+000
2,75192e-002,0,00000e+000,3,57750e-001,-2,50569e+000,3,57750e-001,6,55335e-001,3,57750e-001,-3,19958e+000
2,80385e-002,0,00000e+000,3,64500e-001,-2,42859e+000,3,64500e-001,6,16786e-001,3,64500e-001,-3,19958e+000
2,85577e-002,0,00000e+000,3,71250e-001,-2,35150e+000,3,71250e-001,6,16786e-001,3,71250e-001,-3,04538e+000
2,90769e-002,0,00000e+000,3,78000e-001,-2,23585e+000,3,78000e-001,6,93884e-001,3,78000e-001,-2,85263e+000
2,95962e-002,0,00000e+000,3,84750e-001,-2,15875e+000,3,84750e-001,7,70982e-001,3,84750e-001,-2,58279e+000
3,01154e-002,0,00000e+000,3,91500e-001,-1,92746e+000,3,91500e-001,6,93884e-001,3,91500e-001,-2,42859e+000
3,06346e-002,0,00000e+000,3,98250e-001,-1,65761e+000,3,98250e-001,5,78237e-001,3,98250e-001,-2,62134e+000
3,11538e-002,0,00000e+000,4,05000e-001,-1,50342e+000,4,05000e-001,5,01138e-001,4,05000e-001,-2,92973e+000
3,16731e-002,0,00000e+000,4,11750e-001,-1,50342e+000,4,11750e-001,5,39688e-001,4,11750e-001,-3,04538e+000
3,21923e-002,0,00000e+000,4,18500e-001,-1,54196e+000,4,18500e-001,9,63728e-001,4,18500e-001,-2,96828e+000
3,27115e-002,0,00000e+000,4,25250e-001,-1,38777e+000,4,25250e-001,1,54196e+000,4,25250e-001,-3,08393e+000
3,32308e-002,0,00000e+000,4,32000e-001,-1,31067e+000,4,32000e-001,1,92746e+000,4,32000e-001,-3,43087e+000
3,37500e-002,0,00000e+000,4,38750e-001,-1,46487e+000,4,38750e-001,1,88891e+000,4,38750e-001,-3,27667e+000
3,42692e-002,0,00000e+000,4,45500e-001,-1,58051e+000,4,45500e-001,1,61906e+000,4,45500e-001,-2,96828e+000
3,47885e-002,0,00000e+000,4,52250e-001,-1,73471e+000,4,52250e-001,1,23357e+000,4,52250e-001,-2,69844e+000
3,53077e-002,0,00000e+000,4,59000e-001,-1,85036e+000,4,59000e-001,8,48080e-001,4,59000e-001,-2,42859e+000
3,58269e-002,0,00000e+000,4,65750e-001,-2,00455e+000,4,65750e-001,5,01138e-001,4,65750e-001,-2,00455e+000
3,63462e-002,0,00000e+000,4,72500e-001,-1,92746e+000,4,72500e-001,3,08393e-001,4,72500e-001,-1,88891e+000
3,68654e-002,0,00000e+000,4,79250e-001,-1,88891e+000,4,79250e-001,3,85491e-001,4,79250e-001,-2,15875e+000
3,73846e-002,0,00000e+000,4,86000e-001,-1,81181e+000,4,86000e-001,5,39688e-001,4,86000e-001,-2,77554e+000
3,79038e-002,0,00000e+000,4,92750e-001,-1,85036e+000,4,92750e-001,8,86629e-001,4,92750e-001,-3,16103e+000
3,84231e-002,0,00000e+000,4,99500e-001,-1,85036e+000,4,99500e-001,1,34922e+000,4,99500e-001,-3,31522e+000
3,89423e-002,0,00000e+000,5,06250e-001,-1,81181e+000,5,06250e-001,1,88891e+000,5,06250e-001,-3,43087e+000
3,94615e-002,0,00000e+000,5,13000e-001,-1,85036e+000,5,13000e-001,2,08165e+000,5,13000e-001,-3,43087e+000
3,99808e-002,0,00000e+000,5,19750e-001,-1,92746e+000,5,19750e-001,1,73471e+000,5,19750e-001,-2,81409e+000
4,05000e-002,0,00000e+000,5,26500e-001,-2,00455e+000,5,26500e-001,1,11792e+000,5,26500e-001,-1,96600e+000
4,10192e-002,0,00000e+000,5,33250e-001,-2,08165e+000,5,33250e-001,6,93884e-001,5,33250e-001,-1,54196e+000
4,15385e-002,0,00000e+000,5,40000e-001,-2,19730e+000,5,40000e-001,5,78237e-001,5,40000e-001,-1,81181e+000
4,20577e-002,0,00000e+000,5,46750e-001,-2,19730e+000,5,46750e-001,7,32433e-001,5,46750e-001,-2,39004e+000
4,25769e-002,0,00000e+000,5,53500e-001,-2,12020e+000,5,53500e-001,9,63728e-001,5,53500e-001,-2,81409e+000
4,30962e-002,0,00000e+000,5,60250e-001,-2,12020e+000,5,60250e-001,1,15647e+000,5,60250e-001,-2,92973e+000
4,36154e-002,0,00000e+000,5,67000e-001,-2,15875e+000,5,67000e-001,1,31067e+000,5,67000e-001,-3,04538e+000
4,41346e-002,0,00000e+000,5,73750e-001,-2,31295e+000,5,73750e-001,1,31067e+000,5,73750e-001,-3,12248e+000
4,46538e-002,0,00000e+000,5,80500e-001,-2,39004e+000,5,80500e-001,1,15647e+000,5,80500e-001,-3,00683e+000
4,51731e-002,0,00000e+000,5,87250e-001,-2,42859e+000,5,87250e-001,1,04083e+000,5,87250e-001,-2,81409e+000
4,56923e-002,0,00000e+000,5,94000e-001,-2,35150e+000,5,94000e-001,1,04083e+000,5,94000e-001,-2,69844e+000
4,62115e-002,0,00000e+000,6,00750e-001,-2,19730e+000,6,00750e-001,1,19502e+000,6,00750e-001,-2,73699e+000
4,67308e-002,0,00000e+000,6,07500e-001,-2,08165e+000,6,07500e-001,1,34922e+000,6,07500e-001,-2,92973e+000
4,72500e-002,0,00000e+000,6,14250e-001,-2,04310e+000,6,14250e-001,1,54196e+000,6,14250e-001,-3,04538e+000
4,77692e-002,0,00000e+000,6,21000e-001,-2,00455e+000,6,21000e-001,1,69616e+000,6,21000e-001,-3,08393e+000
4,82885e-002,0,00000e+000,6,27750e-001,-2,08165e+000,6,27750e-001,1,77326e+000,6,27750e-001,-3,12248e+000
4,88077e-002,0,00000e+000,6,34500e-001,-2,15875e+000,6,34500e-001,1,69616e+000,6,34500e-001,-3,23813e+000
4,93269e-002,0,00000e+000,6,41250e-001,-2,19730e+000,6,41250e-001,1,54196e+000,6,41250e-001,-3,23813e+000
4,98462e-002,0,00000e+000,6,48000e-001,-2,19730e+000,6,48000e-001,1,34922e+000,6,48000e-001,-3,00683e+000
5,03654e-002,0,00000e+000,6,54750e-001,-2,12020e+000,6,54750e-001,1,23357e+000,6,54750e-001,-2,77554e+000
5,08846e-002,0,00000e+000,6,61500e-001,-2,08165e+000,6,61500e-001,1,27212e+000,6,61500e-001,-2,85263e+000
5,14038e-002,0,00000e+000,6,68250e-001,-2,00455e+000,6,68250e-001,1,46487e+000,6,68250e-001,-3,04538e+000
5,19231e-002,0,00000e+000,6,75000e-001,-1,96600e+000,6,75000e-001,1,61906e+000,6,75000e-001,-3,12248e+000
5,24423e-002,0,00000e+000,6,81750e-001,-1,88891e+000,6,81750e-001,1,61906e+000,6,81750e-001,-2,96828e+000
5,29615e-002,0,00000e+000,6,88500e-001,-1,88891e+000,6,88500e-001,1,58051e+000,6,88500e-001,-2,85263e+000
5,34808e-002,0,00000e+000,6,95250e-001,-1,92746e+000,6,95250e-001,1,42632e+000,6,95250e-001,-2,85263e+000
5,40000e-002,9,85275e-005,7,02000e-001,-1,92746e+000,7,02000e-001,1,34922e+000,7,02000e-001,-2,89118e+000
5,45192e-002,9,08064e-005,7,08750e-001,-1,96600e+000,7,08750e-001,1,38777e+000,7,08750e-001,-2,92973e+000
5,50385e-002,7,83856e-005,7,15500e-001,-2,00455e+000,7,15500e-001,1,46487e+000,7,15500e-001,-3,00683e+000
5,55577e-002,6,05936e-005,7,22250e-001,-1,96600e+000,7,22250e-001,1,54196e+000,7,22250e-001,-3,08393e+000
5,60769e-002,4,78370e-005,7,29000e-001,-1,96600e+000,7,29000e-001,1,58051e+000,7,29000e-001,-3,08393e+000
5,65962e-002,5,15297e-005,7,35750e-001,-1,92746e+000,7,35750e-001,1,58051e+000,7,35750e-001,-2,96828e+000
5,71154e-002,6,05936e-005,7,42500e-001,-1,92746e+000,7,42500e-001,1,58051e+000,7,42500e-001,-2,92973e+000
5,76346e-002,6,12650e-005,7,49250e-001,-1,88891e+000,7,49250e-001,1,61906e+000,7,49250e-001,-2,89118e+000
5,81538e-002,5,05226e-005,7,56000e-001,-1,81181e+000,7,56000e-001,1,61906e+000,7,56000e-001,-2,96828e+000
5,86731e-002,3,30663e-005,7,62750e-001,-1,81181e+000,7,62750e-001,1,65761e+000,7,62750e-001,-3,00683e+000
5,91923e-002,1,66171e-005,7,69500e-001,-1,81181e+000,7,69500e-001,1,58051e+000,7,69500e-001,-2,96828e+000
5,97115e-002,-2,34989e-006,7,76250e-001,-1,88891e+000,7,76250e-001,1,42632e+000,7,76250e-001,-2,92973e+000
6,02308e-002,-6,21042e-005,7,83000e-001,-1,92746e+000,7,83000e-001,1,34922e+000,7,83000e-001,-2,92973e+000
6,07500e-002,-1,42336e-004,7,89750e-001,-1,92746e+000,7,89750e-001,1,31067e+000,7,89750e-001,-2,92973e+000
6,12692e-002,-1,75570e-004,7,96500e-001,-1,88891e+000,7,96500e-001,1,27212e+000,7,96500e-001,-2,92973e+000
6,17885e-002,-1,43008e-004,8,03250e-001,-1,85036e+000,8,03250e-001,1,23357e+000,8,03250e-001,-2,85263e+000
6,23077e-002,-7,48608e-005,8,10000e-001,-1,81181e+000,8,10000e-001,1,19502e+000,8,10000e-001,-2,85263e+000
6,28269e-002,-1,12459e-005,8,16750e-001,-1,77326e+000,8,16750e-001,1,15647e+000,8,16750e-001,-2,81409e+000
6,33462e-002,2,04776e-005,8,23500e-001,-1,69616e+000,8,23500e-001,1,19502e+000,8,23500e-001,-2,85263e+000
6,38654e-002,3,28984e-005,8,30250e-001,-1,69616e+000,8,30250e-001,1,23357e+000,8,30250e-001,-2,89118e+000
6,43846e-002,6,74754e-005,8,37000e-001,-1,65761e+000,8,37000e-001,1,23357e+000,8,37000e-001,-2,96828e+000
6,49038e-002,1,27901e-004,8,43750e-001,-1,65761e+000,8,43750e-001,1,23357e+000,8,43750e-001,-2,89118e+000
6,54231e-002,1,76074e-004,8,50500e-001,-1,61906e+000,8,50500e-001,1,19502e+000,8,50500e-001,-2,81409e+000
6,59423e-002,1,89166e-004,8,57250e-001,-1,61906e+000,8,57250e-001,1,19502e+000,8,57250e-001,-2,77554e+000
6,64615e-002,1,84634e-004,8,64000e-001,-1,58051e+000,8,64000e-001,1,15647e+000,8,64000e-001,-2,81409e+000
6,69808e-002,1,93194e-004,8,70750e-001,-1,61906e+000,8,70750e-001,1,11792e+000,8,70750e-001,-2,77554e+000
6,75000e-002,1,98062e-004,8,77500e-001,-1,61906e+000,8,77500e-001,1,00228e+000,8,77500e-001,-2,77554e+000
6,80192e-002,1,81445e-004,8,84250e-001,-1,61906e+000,8,84250e-001,1,00228e+000,8,84250e-001,-2,81409e+000
6,85385e-002,1,47875e-004,8,91000e-001,-1,65761e+000,8,91000e-001,1,07938e+000,8,91000e-001,-2,92973e+000
6,90577e-002,9,38277e-005,8,97750e-001,-1,65761e+000,8,97750e-001,1,04083e+000,8,97750e-001,-2,96828e+000
6,95769e-002,2,13169e-005,9,04500e-001,-1,69616e+000,9,04500e-001,8,86629e-001,9,04500e-001,-2,92973e+000
7,00962e-002,-4,11231e-005,9,11250e-001,-1,81181e+000,9,11250e-001,8,09531e-001,9,11250e-001,-2,96828e+000
7,06154e-002,-7,98962e-005,9,18000e-001,-1,85036e+000,9,18000e-001,8,09531e-001,9,18000e-001,-3,12248e+000
7,11346e-002,-1,04234e-004,9,24750e-001,-1,85036e+000,9,24750e-001,7,70982e-001,9,24750e-001,-3,19958e+000
7,16538e-002,-1,15984e-004,9,31500e-001,-1,85036e+000,9,31500e-001,6,55335e-001,9,31500e-001,-3,16103e+000
7,21731e-002,-1,16487e-004,9,38250e-001,-1,85036e+000,9,38250e-001,6,93884e-001,9,38250e-001,-2,96828e+000
7,26923e-002,-1,14977e-004,9,45000e-001,-1,81181e+000,9,45000e-001,7,32433e-001,9,45000e-001,-2,81409e+000
7,32115e-002,-1,18669e-004,9,51750e-001,-1,73471e+000,9,51750e-001,8,09531e-001,9,51750e-001,-2,65989e+000
7,37308e-002,-1,21523e-004,9,58500e-001,-1,65761e+000,9,58500e-001,1,00228e+000,9,58500e-001,-2,73699e+000
7,42500e-002,-1,21019e-004,9,65250e-001,-1,58051e+000,9,65250e-001,1,15647e+000,9,65250e-001,-2,89118e+000
7,47692e-002,-1,20180e-004,9,72000e-001,-1,54196e+000,9,72000e-001,1,23357e+000,9,72000e-001,-3,00683e+000
7,52885e-002,-1,22194e-004,9,78750e-001,-1,58051e+000,9,78750e-001,1,27212e+000,9,78750e-001,-2,92973e+000
7,58077e-002,-1,19341e-004,9,85500e-001,-1,69616e+000,9,85500e-001,1,23357e+000,9,85500e-001,-2,89118e+000
7,63269e-002,-1,10277e-004,9,92250e-001,-1,77326e+000,9,92250e-001,1,27212e+000,9,92250e-001,-2,92973e+000
7,68462e-002,-9,97024e-005,9,99000e-001,-1,85036e+000,9,99000e-001,1,15647e+000,9,99000e-001,-3,04538e+000
7,73654e-002,-8,71138e-005,1,00575e+000,-1,96600e+000,1,00575e+000,1,00228e+000,1,00575e+000,-3,04538e+000
7,78846e-002,-6,96574e-005,1,01250e+000,-2,08165e+000,1,01250e+000,1,00228e+000,1,01250e+000,-2,96828e+000
7,84038e-002,-5,57259e-005,1,01925e+000,-2,08165e+000,1,01925e+000,1,07938e+000,1,01925e+000,-2,77554e+000
7,89231e-002,-5,43832e-005,1,02600e+000,-2,08165e+000,1,02600e+000,1,15647e+000,1,02600e+000,-2,65989e+000
7,94423e-002,-6,66362e-005,1,03275e+000,-2,12020e+000,1,03275e+000,1,11792e+000,1,03275e+000,-2,69844e+000
7,99615e-002,-7,55322e-005,1,03950e+000,-2,15875e+000,1,03950e+000,1,15647e+000,1,03950e+000,-2,81409e+000
8,04808e-002,-6,61326e-005,1,04625e+000,-2,19730e+000,1,04625e+000,1,23357e+000,1,04625e+000,-2,81409e+000
8,10000e-002,-3,79339e-005,1,05300e+000,-2,15875e+000,1,05300e+000,1,19502e+000,1,05300e+000,-2,73699e+000
8,15192e-002,-3,69268e-006,1,05975e+000,-2,15875e+000,1,05975e+000,1,27212e+000,1,05975e+000,-2,73699e+000
8,20385e-002,3,97803e-005,1,06650e+000,-2,15875e+000,1,06650e+000,1,38777e+000,1,06650e+000,-2,62134e+000
8,25577e-002,8,44282e-005,1,07325e+000,-2,00455e+000,1,07325e+000,1,42632e+000,1,07325e+000,-2,46714e+000
8,30769e-002,1,04906e-004,1,08000e+000,-1,92746e+000,1,08000e+000,1,42632e+000,1,08000e+000,-2,42859e+000
8,35962e-002,9,31563e-005,1,08675e+000,-1,92746e+000,1,08675e+000,1,38777e+000,1,08675e+000,-2,54424e+000
8,41154e-002,5,42153e-005,1,09350e+000,-2,04310e+000,1,09350e+000,1,38777e+000,1,09350e+000,-2,69844e+000
8,46346e-002,4,86763e-006,1,10025e+000,-2,27440e+000,1,10025e+000,1,46487e+000,1,10025e+000,-2,69844e+000
8,51538e-002,-1,67849e-005,1,10700e+000,-2,50569e+000,1,10700e+000,1,61906e+000,1,10700e+000,-2,73699e+000
8,56731e-002,3,52483e-005,1,11375e+000,-2,58279e+000,1,11375e+000,1,61906e+000,1,11375e+000,-2,65989e+000
8,61923e-002,1,36294e-004,1,12050e+000,-2,54424e+000,1,12050e+000,1,61906e+000,1,12050e+000,-2,54424e+000
8,67115e-002,2,01587e-004,1,12725e+000,-2,42859e+000,1,12725e+000,1,61906e+000,1,12725e+000,-2,42859e+000
8,72308e-002,2,11994e-004,1,13400e+000,-2,31295e+000,1,13400e+000,1,61906e+000,1,13400e+000,-2,42859e+000
8,77500e-002,1,91852e-004,1,14075e+000,-2,23585e+000,1,14075e+000,1,65761e+000,1,14075e+000,-2,42859e+000
8,82692e-002,1,52575e-004,1,14750e+000,-2,15875e+000,1,14750e+000,1,77326e+000,1,14750e+000,-2,46714e+000
8,87885e-002,9,23171e-005,1,15425e+000,-2,12020e+000,1,15425e+000,1,88891e+000,1,15425e+000,-2,46714e+000
8,93077e-002,1,32601e-005,1,16100e+000,-2,15875e+000,1,16100e+000,1,88891e+000,1,16100e+000,-2,42859e+000
8,98269e-002,-6,79789e-005,1,16775e+000,-2,15875e+000,1,16775e+000,1,85036e+000,1,16775e+000,-2,42859e+000
9,03462e-002,-1,46868e-004,1,17450e+000,-2,15875e+000,1,17450e+000,1,85036e+000,1,17450e+000,-2,39004e+000
9,08654e-002,-2,08637e-004,1,18125e+000,-2,12020e+000,1,18125e+000,1,81181e+000,1,18125e+000,-2,39004e+000
9,13846e-002,-2,26093e-004,1,18800e+000,-2,04310e+000,1,18800e+000,1,81181e+000,1,18800e+000,-2,35150e+000
9,19038e-002,-2,10483e-004,1,19475e+000,-1,92746e+000,1,19475e+000,1,88891e+000,1,19475e+000,-2,31295e+000
9,24231e-002,-1,88159e-004,1,20150e+000,-1,81181e+000,1,20150e+000,1,88891e+000,1,20150e+000,-2,27440e+000
9,29423e-002,-1,73388e-004,1,20825e+000,-1,73471e+000,1,20825e+000,1,88891e+000,1,20825e+000,-2,23585e+000
9,34615e-002,-1,61471e-004,1,21500e+000,-1,69616e+000,1,21500e+000,1,85036e+000,1,21500e+000,-2,31295e+000
9,39808e-002,-1,37972e-004,1,22175e+000,-1,77326e+000,1,22175e+000,1,81181e+000,1,22175e+000,-2,39004e+000
9,45000e-002,-1,10109e-004,1,22850e+000,-1,88891e+000,1,22850e+000,1,73471e+000,1,22850e+000,-2,39004e+000
9,50192e-002,-1,00374e-004,1,23525e+000,-1,96600e+000,1,23525e+000,1,69616e+000,1,23525e+000,-2,46714e+000
9,55385e-002,-9,81918e-005,1,24200e+000,-2,08165e+000,1,24200e+000,1,61906e+000,1,24200e+000,-2,50569e+000
9,60577e-002,-6,93217e-005,1,24875e+000,-2,19730e+000,1,24875e+000,1,58051e+000,1,24875e+000,-2,54424e+000
9,65769e-002,-5,20333e-006,1,25550e+000,-2,23585e+000,1,25550e+000,1,54196e+000,1,25550e+000,-2,62134e+000
9,70962e-002,6,68040e-005,1,26225e+000,-2,19730e+000,1,26225e+000,1,65761e+000,1,26225e+000,-2,65989e+000
9,76154e-002,1,07256e-004,1,26900e+000,-2,15875e+000,1,26900e+000,1,69616e+000,1,26900e+000,-2,58279e+000
9,81346e-002,9,43313e-005,1,27575e+000,-2,08165e+000,1,27575e+000,1,77326e+000,1,27575e+000,-2,50569e+000
9,86538e-002,5,89151e-005,1,28250e+000,-2,00455e+000,1,28250e+000,1,85036e+000,1,28250e+000,-2,50569e+000
9,91731e-002,5,25368e-005,1,28925e+000,-1,96600e+000,1,28925e+000,1,88891e+000,1,28925e+000,-2,58279e+000
9,96923e-002,6,36149e-005,1,29600e+000,-2,00455e+000,1,29600e+000,1,92746e+000,1,29600e+000,-2,65989e+000
1,00212e-001,6,04257e-005,1,30275e+000,-2,12020e+000,1,30275e+000,1,88891e+000,1,30275e+000,-2,81409e+000
1,00731e-001,5,75723e-005,1,30950e+000,-2,23585e+000,1,30950e+000,1,77326e+000,1,30950e+000,-2,85263e+000
1,01250e-001,6,47898e-005,1,31625e+000,-2,35150e+000,1,31625e+000,1,54196e+000,1,31625e+000,-2,77554e+000
1,01769e-001,7,33501e-005,1,32300e+000,-2,42859e+000,1,32300e+000,1,34922e+000,1,32300e+000,-2,81409e+000
1,02288e-001,7,82177e-005,1,32975e+000,-2,35150e+000,1,32975e+000,1,23357e+000,1,32975e+000,-3,00683e+000
1,02808e-001,1,11284e-004,1,33650e+000,-2,27440e+000,1,33650e+000,1,11792e+000,1,33650e+000,-3,16103e+000
1,03327e-001,1,71038e-004,1,34325e+000,-2,23585e+000,1,34325e+000,9,25179e-001,1,34325e+000,-3,04538e+000
1,03846e-001,2,06958e-004,1,35000e+000,-2,15875e+000,1,35000e+000,7,32433e-001,1,35000e+000,-2,89118e+000
1,04365e-001,2,14679e-004,1,35675e+000,-2,04310e+000,1,35675e+000,6,93884e-001,1,35675e+000,-2,85263e+000
1,04885e-001,2,05951e-004,1,36350e+000,-1,88891e+000,1,36350e+000,7,70982e-001,1,36350e+000,-2,96828e+000
1,05404e-001,1,73724e-004,1,37025e+000,-1,88891e+000,1,37025e+000,8,09531e-001,1,37025e+000,-2,89118e+000
1,05923e-001,1,35790e-004,1,37700e+000,-1,73471e+000,1,37700e+000,8,48080e-001,1,37700e+000,-2,81409e+000
1,06442e-001,9,70169e-005,1,38375e+000,-1,58051e+000,1,38375e+000,9,63728e-001,1,38375e+000,-2,89118e+000
1,06962e-001,3,91089e-005,1,39050e+000,-1,46487e+000,1,39050e+000,9,63728e-001,1,39050e+000,-3,12248e+000
1,07481e-001,-3,91089e-005,1,39725e+000,-1,50342e+000,1,39725e+000,8,09531e-001,1,39725e+000,-3,12248e+000
1,08000e-001,-1,14305e-004,1,40400e+000,-1,50342e+000,1,40400e+000,8,09531e-001,1,40400e+000,-3,04538e+000
1,08519e-001,-1,73724e-004,1,41075e+000,-1,54196e+000,1,41075e+000,8,86629e-001,1,41075e+000,-2,89118e+000
1,09038e-001,-2,25925e-004,1,41750e+000,-1,58051e+000,1,41750e+000,8,86629e-001,1,41750e+000,-2,69844e+000
1,09558e-001,-2,58152e-004,1,42425e+000,-1,58051e+000,1,42425e+000,9,63728e-001,1,42425e+000,-2,73699e+000
1,10077e-001,-2,50935e-004,1,43100e+000,-1,58051e+000,1,43100e+000,1,04083e+000,1,43100e+000,-2,77554e+000
1,10596e-001,-2,20386e-004,1,43775e+000,-1,65761e+000,1,43775e+000,1,07938e+000,1,43775e+000,-2,58279e+000
1,11115e-001,-1,98062e-004,1,44450e+000,-1,61906e+000,1,44450e+000,1,07938e+000,1,44450e+000,-2,39004e+000
1,11635e-001,-1,88159e-004,1,45125e+000,-1,58051e+000,1,45125e+000,1,11792e+000,1,45125e+000,-2,46714e+000
1,12154e-001,-1,74731e-004,1,45800e+000,-1,61906e+000,1,45800e+000,1,04083e+000,1,45800e+000,-2,81409e+000
1,12673e-001,-1,50561e-004,1,46475e+000,-1,69616e+000,1,46475e+000,9,63728e-001,1,46475e+000,-3,12248e+000
1,13192e-001,-1,16991e-004,1,47150e+000,-1,81181e+000,1,47150e+000,1,07938e+000,1,47150e+000,-3,46942e+000
1,13712e-001,-8,67781e-005,1,47825e+000,-2,04310e+000,1,47825e+000,1,23357e+000,1,47825e+000,-3,46942e+000
1,14231e-001,-6,37827e-005,1,48500e+000,-2,27440e+000,1,48500e+000,1,04083e+000,1,48500e+000,-2,96828e+000
1,14750e-001,-4,31373e-005,1,49175e+000,-2,35150e+000,1,49175e+000,6,93884e-001,1,49175e+000,-2,54424e+000
1,15269e-001,-3,23949e-005,1,49850e+000,-2,35150e+000,1,49850e+000,6,16786e-001,1,49850e+000,-2,54424e+000
1,15788e-001,-3,17235e-005,1,50525e+000,-2,19730e+000,1,50525e+000,8,09531e-001,1,50525e+000,-2,69844e+000
1,16308e-001,-2,93736e-005,1,51200e+000,-2,00455e+000,1,51200e+000,1,00228e+000,1,51200e+000,-2,85263e+000
1,16827e-001,-1,32601e-005,1,51875e+000,-1,88891e+000,1,51875e+000,1,15647e+000,1,51875e+000,-2,92973e+000
1,17346e-001,-1,84634e-006,1,52550e+000,-1,77326e+000,1,52550e+000,1,38777e+000,1,52550e+000,-3,08393e+000
1,17865e-001,-1,47707e-005,1,53225e+000,-1,69616e+000,1,53225e+000,1,73471e+000,1,53225e+000,-3,27667e+000
1,18385e-001,-3,18914e-005,1,53900e+000,-1,73471e+000,1,53900e+000,1,92746e+000,1,53900e+000,-3,16103e+000
1,18904e-001,-3,30663e-005,1,54575e+000,-1,77326e+000,1,54575e+000,1,77326e+000,1,54575e+000,-2,81409e+000
1,19423e-001,-2,38346e-005,1,55250e+000,-1,73471e+000,1,55250e+000,1,34922e+000,1,55250e+000,-2,62134e+000
1,19942e-001,-9,56741e-006,1,55925e+000,-1,73471e+000,1,55925e+000,9,63728e-001,1,55925e+000,-2,69844e+000
1,20462e-001,4,19623e-006,1,56600e+000,-1,69616e+000,1,56600e+000,8,09531e-001,1,56600e+000,-2,77554e+000
1,20981e-001,1,69528e-005,1,57275e+000,-1,65761e+000,1,57275e+000,8,86629e-001,1,57275e+000,-2,77554e+000
1,21500e-001,3,97803e-005,1,57950e+000,-1,69616e+000,1,57950e+000,9,63728e-001,1,57950e+000,-2,73699e+000
1,22019e-001,7,01610e-005,1,58625e+000,-1,73471e+000,1,58625e+000,1,00228e+000,1,58625e+000,-2,65989e+000
1,22538e-001,9,08064e-005,1,59300e+000,-1,88891e+000,1,59300e+000,1,07938e+000,1,59300e+000,-2,81409e+000
1,23058e-001,9,09743e-005,1,59975e+000,-2,00455e+000,1,59975e+000,1,19502e+000,1,59975e+000,-3,04538e+000
1,23577e-001,7,30144e-005,1,60650e+000,-2,19730e+000,1,60650e+000,1,19502e+000,1,60650e+000,-3,19958e+000
1,24096e-001,5,16976e-005,1,61325e+000,-2,31295e+000,1,61325e+000,1,19502e+000,1,61325e+000,-3,35377e+000
1,24615e-001,4,24659e-005,1,62000e+000,-2,35150e+000,1,62000e+000,1,34922e+000,1,62000e+000,-3,54652e+000
1,25135e-001,5,75723e-005,1,62675e+000,-2,31295e+000,1,62675e+000,1,46487e+000,1,62675e+000,-3,43087e+000
1,25654e-001,8,14069e-005,1,63350e+000,-2,19730e+000,1,63350e+000,1,46487e+000,1,63350e+000,-3,23813e+000
1,26173e-001,9,90311e-005,1,64025e+000,-2,00455e+000,1,64025e+000,1,42632e+000,1,64025e+000,-2,92973e+000
1,26692e-001,1,03227e-004,1,64700e+000,-1,77326e+000,1,64700e+000,1,42632e+000,1,64700e+000,-2,73699e+000
1,27212e-001,9,04707e-005,1,65375e+000,-1,61906e+000,1,65375e+000,1,54196e+000,1,65375e+000,-2,73699e+000
1,27731e-001,8,02319e-005,1,66050e+000,-1,50342e+000,1,66050e+000,1,61906e+000,1,66050e+000,-2,85263e+000
1,28250e-001,8,07355e-005,1,66725e+000,-1,50342e+000,1,66725e+000,1,65761e+000,1,66725e+000,-2,92973e+000
1,28769e-001,8,64424e-005,1,67400e+000,-1,58051e+000,1,67400e+000,1,61906e+000,1,67400e+000,-2,92973e+000
1,29288e-001,9,31563e-005,1,68075e+000,-1,65761e+000,1,68075e+000,1,58051e+000,1,68075e+000,-2,92973e+000
1,29808e-001,8,97993e-005,1,68750e+000,-1,69616e+000,1,68750e+000,1,58051e+000,1,68750e+000,-2,85263e+000
1,30327e-001,7,28466e-005,1,69425e+000,-1,69616e+000,1,69425e+000,1,50342e+000,1,69425e+000,-2,69844e+000
1,30846e-001,4,38087e-005,1,70100e+000,-1,69616e+000,1,70100e+000,1,38777e+000,1,70100e+000,-2,58279e+000
1,31365e-001,1,86313e-005,1,70775e+000,-1,73471e+000,1,70775e+000,1,31067e+000,1,70775e+000,-2,65989e+000
1,31885e-001,2,03098e-005,1,71450e+000,-1,81181e+000,1,71450e+000,1,34922e+000,1,71450e+000,-2,89118e+000
1,32404e-001,4,58228e-005,1,72125e+000,-1,92746e+000,1,72125e+000,1,31067e+000,1,72125e+000,-3,04538e+000
1,32923e-001,6,46220e-005,1,72800e+000,-2,00455e+000,1,72800e+000,1,19502e+000,1,72800e+000,-3,23813e+000
1,33442e-001,6,19364e-005,1,73475e+000,-2,12020e+000,1,73475e+000,1,11792e+000,1,73475e+000,-3,43087e+000
1,33962e-001,4,54871e-005,1,74150e+000,-2,15875e+000,1,74150e+000,1,19502e+000,1,74150e+000,-3,50797e+000
1,34481e-001,1,79599e-005,1,74825e+000,-2,12020e+000,1,74825e+000,1,42632e+000,1,74825e+000,-3,35377e+000
1,35000e-001,5,53903e-006,1,75500e+000,-2,00455e+000,1,75500e+000,1,46487e+000,1,75500e+000,-3,00683e+000
1,35519e-001,2,70237e-005,1,76175e+000,-1,85036e+000,1,76175e+000,1,38777e+000,1,76175e+000,-2,73699e+000
1,36038e-001,4,28016e-005,1,76850e+000,-1,77326e+000,1,76850e+000,1,34922e+000,1,76850e+000,-2,89118e+000
1,36558e-001,1,66171e-005,1,77525e+000,-1,73471e+000,1,77525e+000,1,27212e+000,1,77525e+000,-3,12248e+000
1,37077e-001,-3,40734e-005,1,78200e+000,-1,73471e+000,1,78200e+000,1,07938e+000,1,78200e+000,-3,08393e+000
1,37596e-001,-7,33501e-005,1,78875e+000,-1,73471e+000,1,78875e+000,1,11792e+000,1,78875e+000,-3,08393e+000
1,38115e-001,-9,34920e-005,1,79550e+000,-1,69616e+000,1,79550e+000,1,31067e+000,1,79550e+000,-3,12248e+000
1,38635e-001,-9,93667e-005,1,80225e+000,-1,65761e+000,1,80225e+000,1,50342e+000,1,80225e+000,-3,12248e+000
1,39154e-001,-9,65133e-005,1,80900e+000,-1,61906e+000,1,80900e+000,1,61906e+000,1,80900e+000,-2,92973e+000
1,39673e-001,-8,66102e-005,1,81575e+000,-1,58051e+000,1,81575e+000,1,69616e+000,1,81575e+000,-2,89118e+000
1,40192e-001,-5,92508e-005,1,82250e+000,-1,54196e+000,1,82250e+000,1,61906e+000,1,82250e+000,-2,89118e+000
1,40712e-001,-2,29953e-005,1,82925e+000,-1,58051e+000,1,82925e+000,1,42632e+000,1,82925e+000,-2,65989e+000
1,41231e-001,-6,54612e-006,1,83600e+000,-1,58051e+000,1,83600e+000,1,34922e+000,1,83600e+000,-2,50569e+000
1,41750e-001,-2,23239e-005,1,84275e+000,-1,61906e+000,1,84275e+000,1,46487e+000,1,84275e+000,-2,58279e+000
1,42269e-001,-4,14588e-005,1,84950e+000,-1,61906e+000,1,84950e+000,1,58051e+000,1,84950e+000,-2,77554e+000
1,42788e-001,-3,03807e-005,1,85625e+000,-1,61906e+000,1,85625e+000,1,61906e+000,1,85625e+000,-2,81409e+000
1,43308e-001,-1,15816e-005,1,86300e+000,-1,61906e+000,1,86300e+000,1,54196e+000,1,86300e+000,-2,73699e+000
1,43827e-001,-1,51064e-006,1,86975e+000,-1,65761e+000,1,86975e+000,1,50342e+000,1,86975e+000,-2,65989e+000
1,44346e-001,6,71397e-007,1,87650e+000,-1,69616e+000,1,87650e+000,1,34922e+000,1,87650e+000,-2,69844e+000
1,44865e-001,-1,12459e-005,1,88325e+000,-1,81181e+000,1,88325e+000,1,19502e+000,1,88325e+000,-2,89118e+000
1,45385e-001,-2,43381e-005,1,89000e+000,-1,88891e+000,1,89000e+000,1,11792e+000,1,89000e+000,-3,23813e+000
1,45904e-001,-2,36667e-005,1,89675e+000,-1,92746e+000,1,89675e+000,1,11792e+000,1,89675e+000,-3,31522e+000
1,46423e-001,-2,01419e-005,1,90350e+000,-1,96600e+000,1,90350e+000,1,23357e+000,1,90350e+000,-3,16103e+000
1,46942e-001,-2,26596e-005,1,91025e+000,-1,92746e+000,1,91025e+000,1,34922e+000,1,91025e+000,-2,77554e+000
1,47462e-001,-3,20592e-005,1,91700e+000,-1,81181e+000,1,91700e+000,1,42632e+000,1,91700e+000,-2,58279e+000
1,47981e-001,-4,14588e-005,1,92375e+000,-1,61906e+000,1,92375e+000,1,54196e+000,1,92375e+000,-2,77554e+000
1,48500e-001,-3,79339e-005,1,93050e+000,-1,46487e+000,1,93050e+000,1,50342e+000,1,93050e+000,-2,92973e+000
1,49019e-001,-2,53452e-005,1,93725e+000,-1,31067e+000,1,93725e+000,1,42632e+000,1,93725e+000,-2,65989e+000
1,49538e-001,-1,07424e-005,1,94400e+000,-1,23357e+000,1,94400e+000,1,42632e+000,1,94400e+000,-2,23585e+000
1,50058e-001,4,53193e-006,1,95075e+000,-1,15647e+000,1,95075e+000,1,50342e+000,1,95075e+000,-2,12020e+000
1,50577e-001,1,72885e-005,1,95750e+000,-1,07938e+000,1,95750e+000,1,50342e+000,1,95750e+000,-2,23585e+000
1,51096e-001,3,03807e-005,1,96425e+000,-1,04083e+000,1,96425e+000,1,54196e+000,1,96425e+000,-2,39004e+000
1,51615e-001,4,21302e-005,1,97100e+000,-1,11792e+000,1,97100e+000,1,54196e+000,1,97100e+000,-2,65989e+000
1,52135e-001,4,34730e-005,1,97775e+000,-1,27212e+000,1,97775e+000,1,54196e+000,1,97775e+000,-2,85263e+000
1,52654e-001,3,10521e-005,1,98450e+000,-1,50342e+000,1,98450e+000,1,58051e+000,1,98450e+000,-3,16103e+000
1,53173e-001,2,06455e-005,1,99125e+000,-1,88891e+000,1,99125e+000,1,46487e+000,1,99125e+000,-3,43087e+000
1,53692e-001,2,55131e-005,1,99800e+000,-2,23585e+000,1,99800e+000,1,15647e+000,1,99800e+000,-3,35377e+000
1,54212e-001,3,70947e-005,2,00475e+000,-2,46714e+000,2,00475e+000,9,63728e-001,2,00475e+000,-3,04538e+000
1,54731e-001,5,05226e-005,2,01150e+000,-2,50569e+000,2,01150e+000,9,25179e-001,2,01150e+000,-2,96828e+000
1,55250e-001,6,16007e-005,2,01825e+000,-2,27440e+000,2,01825e+000,1,11792e+000,2,01825e+000,-2,96828e+000
1,55769e-001,5,92508e-005,2,02500e+000,-1,96600e+000,2,02500e+000,1,34922e+000,2,02500e+000,-3,00683e+000
1,56288e-001,4,28016e-005,2,03175e+000,-1,73471e+000,2,03175e+000,1,58051e+000,2,03175e+000,-3,16103e+000
1,56808e-001,2,13169e-005,2,03850e+000,-1,42632e+000,2,03850e+000,1,50342e+000,2,03850e+000,-3,12248e+000
1,57327e-001,4,19623e-006,2,04525e+000,-1,23357e+000,2,04525e+000,1,23357e+000,2,04525e+000,-2,89118e+000
1,57846e-001,-6,04257e-006,2,05200e+000,-1,11792e+000,2,05200e+000,1,00228e+000,2,05200e+000,-2,77554e+000
1,58365e-001,-5,87472e-006,2,05875e+000,-1,11792e+000,2,05875e+000,7,32433e-001,2,05875e+000,-2,73699e+000
1,58885e-001,1,89670e-005,2,06550e+000,-1,23357e+000,2,06550e+000,6,93884e-001,2,06550e+000,-3,04538e+000
1,59404e-001,5,55581e-005,2,07225e+000,-1,46487e+000,2,07225e+000,8,09531e-001,2,07225e+000,-3,39232e+000
1,59923e-001,7,53643e-005,2,07900e+000,-1,69616e+000,2,07900e+000,7,70982e-001,2,07900e+000,-3,43087e+000
1,60442e-001,6,63004e-005,2,08575e+000,-2,04310e+000,2,08575e+000,7,70982e-001,2,08575e+000,-3,27667e+000
1,60962e-001,2,73594e-005,2,09250e+000,-2,42859e+000,2,09250e+000,7,32433e-001,2,09250e+000,-3,08393e+000
1,61481e-001,-2,41703e-005,2,09925e+000,-2,77554e+000,2,09925e+000,8,09531e-001,2,09925e+000,-3,16103e+000
1,62000e-001,-5,57259e-005,2,10600e+000,-3,12248e+000,2,10600e+000,9,63728e-001,2,10600e+000,-3,46942e+000
1,62519e-001,-6,27756e-005,2,11275e+000,-3,27667e+000,2,11275e+000,1,15647e+000,2,11275e+000,-3,54652e+000
1,63038e-001,-6,84825e-005,2,11950e+000,-3,23813e+000,2,11950e+000,1,38777e+000,2,11950e+000,-3,27667e+000
1,63558e-001,-7,31823e-005,2,12625e+000,-2,92973e+000,2,12625e+000,1,50342e+000,2,12625e+000,-3,08393e+000
1,64077e-001,-6,52934e-005,2,13300e+000,-2,54424e+000,2,13300e+000,1,58051e+000,2,13300e+000,-3,04538e+000
1,64596e-001,-5,11940e-005,2,13975e+000,-2,19730e+000,2,13975e+000,1,54196e+000,2,13975e+000,-3,00683e+000
1,65115e-001,-4,24659e-005,2,14650e+000,-1,88891e+000,2,14650e+000,1,88891e+000,2,14650e+000,-2,96828e+000
1,65635e-001,-3,59197e-005,2,15325e+000,-1,69616e+000,2,15325e+000,2,12020e+000,2,15325e+000,-2,92973e+000
1,66154e-001,-2,60166e-005,2,16000e+000,-1,77326e+000,2,16000e+000,2,04310e+000,2,16000e+000,-2,81409e+000
1,66673e-001,-1,42672e-005,2,16675e+000,-1,88891e+000,2,16675e+000,1,81181e+000,2,16675e+000,-2,77554e+000
1,67192e-001,-1,37636e-005,2,17350e+000,-1,88891e+000,2,17350e+000,1,69616e+000,2,17350e+000,-2,89118e+000
1,67712e-001,-2,70237e-005,2,18025e+000,-2,00455e+000,2,18025e+000,1,61906e+000,2,18025e+000,-2,69844e+000
1,68231e-001,-4,41444e-005,2,18700e+000,-2,19730e+000,2,18700e+000,1,46487e+000,2,18700e+000,-2,42859e+000
1,68750e-001,-5,03548e-005,2,19375e+000,-2,31295e+000,2,19375e+000,1,58051e+000,2,19375e+000,-2,54424e+000
1,69269e-001,-3,64233e-005,2,20050e+000,-2,39004e+000,2,20050e+000,1,61906e+000,2,20050e+000,-2,73699e+000
1,69788e-001,-7,55322e-006,2,20725e+000,-2,42859e+000,2,20725e+000,1,61906e+000,2,20725e+000,-2,77554e+000
1,70308e-001,1,19173e-005,2,21400e+000,-2,35150e+000,2,21400e+000,1,61906e+000,2,21400e+000,-2,50569e+000
1,70827e-001,1,05745e-005,2,22075e+000,-2,23585e+000,2,22075e+000,1,73471e+000,2,22075e+000,-2,39004e+000
1,71346e-001,-3,35698e-007,2,22750e+000,-2,00455e+000,2,22750e+000,1,73471e+000,2,22750e+000,-2,42859e+000
1,71865e-001,-6,71397e-006,2,23425e+000,-1,73471e+000,2,23425e+000,1,73471e+000,2,23425e+000,-2,35150e+000
1,72385e-001,0,00000e+000,2,24100e+000,-1,58051e+000,2,24100e+000,1,69616e+000,2,24100e+000,-2,23585e+000
1,72904e-001,1,91348e-005,2,24775e+000,-1,58051e+000,2,24775e+000,1,65761e+000,2,24775e+000,-2,31295e+000
1,73423e-001,4,06195e-005,2,25450e+000,-1,65761e+000,2,25450e+000,1,54196e+000,2,25450e+000,-2,42859e+000
1,73942e-001,5,03548e-005,2,26125e+000,-1,69616e+000,2,26125e+000,1,46487e+000,2,26125e+000,-2,39004e+000
1,74462e-001,4,80049e-005,2,26800e+000,-1,69616e+000,2,26800e+000,1,42632e+000,2,26800e+000,-2,39004e+000
1,74981e-001,4,22980e-005,2,27475e+000,-1,77326e+000,2,27475e+000,1,38777e+000,2,27475e+000,-2,31295e+000
1,75500e-001,4,04517e-005,2,28150e+000,-1,81181e+000,2,28150e+000,1,34922e+000,2,28150e+000,-2,39004e+000
1,76019e-001,5,35439e-005,2,28825e+000,-1,81181e+000,2,28825e+000,1,31067e+000,2,28825e+000,-2,39004e+000
1,76538e-001,7,48608e-005,2,29500e+000,-1,77326e+000,2,29500e+000,1,31067e+000,2,29500e+000,-2,42859e+000
1,77058e-001,8,49317e-005,2,30175e+000,-1,77326e+000,2,30175e+000,1,34922e+000,2,30175e+000,-2,39004e+000
1,77577e-001,8,97993e-005,2,30850e+000,-1,73471e+000,2,30850e+000,1,42632e+000,2,30850e+000,-2,35150e+000
1,78096e-001,8,27497e-005,2,31525e+000,-1,73471e+000,2,31525e+000,1,50342e+000,2,31525e+000,-2,31295e+000
1,78615e-001,5,53903e-005,2,32200e+000,-1,58051e+000,2,32200e+000,1,58051e+000,2,32200e+000,-2,35150e+000
1,79135e-001,1,69528e-005,2,32875e+000,-1,54196e+000,2,32875e+000,1,61906e+000,2,32875e+000,-2,39004e+000
1,79654e-001,-1,77920e-005,2,33550e+000,-1,65761e+000,2,33550e+000,1,65761e+000,2,33550e+000,-2,42859e+000
1,80173e-001,-4,04517e-005,2,34225e+000,-1,73471e+000,2,34225e+000,1,73471e+000,2,34225e+000,-2,39004e+000
1,80692e-001,-5,06905e-005,2,34900e+000,-1,77326e+000,2,34900e+000,1,77326e+000,2,34900e+000,-2,35150e+000
1,81212e-001,-6,02579e-005,2,35575e+000,-1,81181e+000,2,35575e+000,1,81181e+000,2,35575e+000,-2,35150e+000
1,81731e-001,-7,50286e-005,2,36250e+000,-1,81181e+000,2,36250e+000,1,81181e+000,2,36250e+000,-2,39004e+000
1,82250e-001,-8,89601e-005,2,36925e+000,-1,85036e+000,2,36925e+000,1,81181e+000,2,36925e+000,-2,42859e+000
1,82769e-001,-9,60098e-005,2,37600e+000,-1,88891e+000,2,37600e+000,1,85036e+000,2,37600e+000,-2,31295e+000
1,83288e-001,-9,28206e-005,2,38275e+000,-1,96600e+000,2,38275e+000,1,88891e+000,2,38275e+000,-2,27440e+000
1,83808e-001,-8,64424e-005,2,38950e+000,-1,92746e+000,2,38950e+000,1,85036e+000,2,38950e+000,-2,39004e+000
1,84327e-001,-8,47639e-005,2,39625e+000,-1,88891e+000,2,39625e+000,1,85036e+000,2,39625e+000,-2,46714e+000
1,84846e-001,-8,19104e-005,2,40300e+000,-1,88891e+000,2,40300e+000,1,81181e+000,2,40300e+000,-2,42859e+000
1,85365e-001,-7,10002e-005,2,40975e+000,-1,85036e+000,2,40975e+000,1,73471e+000,2,40975e+000,-2,42859e+000
1,85885e-001,-5,47189e-005,2,41650e+000,-1,85036e+000,2,41650e+000,1,73471e+000,2,41650e+000,-2,46714e+000
1,86404e-001,-4,33051e-005,2,42325e+000,-1,88891e+000,2,42325e+000,1,69616e+000,2,42325e+000,-2,50569e+000
1,86923e-001,-4,14588e-005,2,43000e+000,-1,92746e+000,2,43000e+000,1,65761e+000,2,43000e+000,-2,54424e+000
1,87442e-001,-4,07874e-005,2,43675e+000,-1,92746e+000,2,43675e+000,1,73471e+000,2,43675e+000,-2,54424e+000
1,87962e-001,-3,57519e-005,2,44350e+000,-1,96600e+000,2,44350e+000,1,69616e+000,2,44350e+000,-2,58279e+000
1,88481e-001,-2,97093e-005,2,45025e+000,-1,96600e+000,2,45025e+000,1,73471e+000,2,45025e+000,-2,54424e+000
1,89000e-001,-2,83665e-005,2,45700e+000,-2,00455e+000,2,45700e+000,1,73471e+000,2,45700e+000,-2,58279e+000
1,89519e-001,-2,93736e-005,2,46375e+000,-2,00455e+000,2,46375e+000,1,73471e+000,2,46375e+000,-2,58279e+000
1,90038e-001,-2,43381e-005,2,47050e+000,-2,04310e+000,2,47050e+000,1,77326e+000,2,47050e+000,-2,54424e+000
1,90558e-001,-1,35958e-005,2,47725e+000,-2,04310e+000,2,47725e+000,1,77326e+000,2,47725e+000,-2,54424e+000
1,91077e-001,-6,54612e-006,2,48400e+000,-2,04310e+000,2,48400e+000,1,77326e+000,2,48400e+000,-2,54424e+000
1,91596e-001,-4,69978e-006,2,49075e+000,-2,00455e+000,2,49075e+000,1,77326e+000,2,49075e+000,-2,50569e+000
1,92115e-001,-3,86053e-006,2,49750e+000,-1,92746e+000,2,49750e+000,1,81181e+000,2,49750e+000,-2,50569e+000
1,92635e-001,-2,85344e-006,2,50425e+000,-1,92746e+000,2,50425e+000,1,81181e+000,2,50425e+000,-2,39004e+000
1,93154e-001,-1,34279e-006,2,51100e+000,-2,08165e+000,2,51100e+000,1,69616e+000,2,51100e+000,-2,42859e+000
1,93673e-001,3,52483e-006,2,51775e+000,-2,31295e+000,2,51775e+000,1,58051e+000,2,51775e+000,-2,62134e+000
1,94192e-001,1,35958e-005,2,52450e+000,-2,27440e+000,2,52450e+000,1,69616e+000,2,52450e+000,-2,69844e+000
1,94712e-001,2,50095e-005,2,53125e+000,-2,19730e+000,2,53125e+000,1,73471e+000,2,53125e+000,-2,65989e+000
1,95231e-001,3,20592e-005,2,53800e+000,-2,08165e+000,2,53800e+000,1,65761e+000,2,53800e+000,-2,62134e+000
1,95750e-001,3,45769e-005,2,54475e+000,-2,08165e+000,2,54475e+000,1,69616e+000,2,54475e+000,-2,58279e+000
1,96269e-001,3,27306e-005,2,55150e+000,-2,12020e+000,2,55150e+000,1,61906e+000,2,55150e+000,-2,65989e+000
1,96788e-001,2,97093e-005,2,55825e+000,-2,12020e+000,2,55825e+000,1,61906e+000,2,55825e+000,-2,58279e+000
1,97308e-001,2,85344e-005,2,56500e+000,-2,15875e+000,2,56500e+000,1,61906e+000,2,56500e+000,-2,69844e+000
1,97827e-001,2,70237e-005,2,57175e+000,-2,27440e+000,2,57175e+000,1,77326e+000,2,57175e+000,-2,42859e+000
1,98346e-001,2,56809e-005,2,57850e+000,-1,88891e+000,2,57850e+000,1,58051e+000,2,57850e+000,-2,50569e+000
1,98865e-001,2,66880e-005,2,58525e+000,-2,69844e+000,2,58525e+000,1,81181e+000,2,58525e+000,-2,73699e+000
1,99385e-001,2,75273e-005,2,59200e+000,-1,92746e+000,2,59200e+000,1,61906e+000,2,59200e+000,-2,19730e+000
1,99904e-001,2,78630e-005,2,59875e+000,-2,08165e+000,2,59875e+000,1,38777e+000,2,59875e+000,-2,39004e+000
2,00423e-001,3,10521e-005,2,60550e+000,-2,46714e+000,2,60550e+000,1,77326e+000,2,60550e+000,-2,65989e+000
2,00942e-001,4,28016e-005,2,61225e+000,-1,96600e+000,2,61225e+000,1,61906e+000,2,61225e+000,-2,65989e+000
2,01462e-001,5,55581e-005,2,61900e+000,-1,81181e+000,2,61900e+000,1,46487e+000,2,61900e+000,-2,58279e+000
2,01981e-001,5,35439e-005,2,62575e+000,-1,81181e+000,2,62575e+000,1,46487e+000,2,62575e+000,-2,54424e+000
2,02500e-001,3,50805e-005,2,63250e+000,-1,88891e+000,2,63250e+000,1,42632e+000,2,63250e+000,-2,62134e+000
2,03019e-001,2,13169e-005,2,63925e+000,-1,96600e+000,2,63925e+000,1,42632e+000,2,63925e+000,-2,69844e+000
2,03538e-001,2,09812e-005,2,64600e+000,-2,04310e+000,2,64600e+000,1,42632e+000,2,64600e+000,-2,73699e+000
2,04058e-001,2,70237e-005,2,65275e+000,-2,04310e+000,2,65275e+000,1,46487e+000,2,65275e+000,-2,69844e+000
2,04577e-001,3,15557e-005,2,65950e+000,-2,04310e+000,2,65950e+000,1,46487e+000,2,65950e+000,-2,65989e+000
2,05096e-001,2,90379e-005,2,66625e+000,-2,04310e+000,2,66625e+000,1,42632e+000,2,66625e+000,-2,54424e+000
2,05615e-001,2,98772e-005,2,67300e+000,-2,08165e+000,2,67300e+000,1,38777e+000,2,67300e+000,-2,46714e+000
2,06135e-001,5,15297e-005,2,67975e+000,-2,04310e+000,2,67975e+000,1,34922e+000,2,67975e+000,-2,39004e+000
2,06654e-001,6,96574e-005,2,68650e+000,-2,08165e+000,2,68650e+000,1,31067e+000,2,68650e+000,-2,35150e+000
2,07173e-001,5,35439e-005,2,69325e+000,-2,08165e+000,2,69325e+000,1,31067e+000,2,69325e+000,-2,35150e+000
2,07692e-001,1,02388e-005,2,70000e+000,-2,08165e+000,2,70000e+000,1,27212e+000,2,70000e+000,-2,35150e+000
2,08212e-001,-3,10521e-005,2,70675e+000,-2,08165e+000,2,70675e+000,1,23357e+000,2,70675e+000,-2,39004e+000
2,08731e-001,-5,65652e-005,2,71350e+000,-2,00455e+000,2,71350e+000,1,19502e+000,2,71350e+000,-2,42859e+000
2,09250e-001,-6,76432e-005,2,72025e+000,-2,12020e+000,2,72025e+000,1,23357e+000,2,72025e+000,-2,46714e+000
2,09769e-001,-5,74044e-005,2,72700e+000,-2,04310e+000,2,72700e+000,1,27212e+000,2,72700e+000,-2,54424e+000
2,10288e-001,-3,17235e-005,2,73375e+000,-2,00455e+000,2,73375e+000,1,31067e+000,2,73375e+000,-2,58279e+000
2,10808e-001,-1,07424e-005,2,74050e+000,-1,92746e+000,2,74050e+000,1,34922e+000,2,74050e+000,-2,69844e+000
2,11327e-001,1,09102e-005,2,74725e+000,-2,04310e+000,2,74725e+000,1,42632e+000,2,74725e+000,-2,73699e+000
2,11846e-001,3,15557e-005,2,75400e+000,-2,00455e+000,2,75400e+000,1,46487e+000,2,75400e+000,-2,89118e+000
2,12365e-001,2,65202e-005,2,76075e+000,-2,00455e+000,2,76075e+000,1,58051e+000,2,76075e+000,-3,16103e+000
2,12885e-001,0,00000e+000,2,76750e+000,-2,12020e+000,2,76750e+000,1,73471e+000,2,76750e+000,-3,39232e+000
2,13404e-001,-1,09102e-005,2,77425e+000,-2,15875e+000,2,77425e+000,1,96600e+000,2,77425e+000,-3,66217e+000
2,13923e-001,-5,87472e-006,2,78100e+000,-2,19730e+000,2,78100e+000,2,15875e+000,2,78100e+000,-3,73926e+000
2,14442e-001,-1,10781e-005,2,78775e+000,-2,19730e+000,2,78775e+000,2,23585e+000,2,78775e+000,-3,43087e+000
2,14962e-001,-2,70237e-005,2,79450e+000,-2,08165e+000,2,79450e+000,2,19730e+000,2,79450e+000,-3,00683e+000
2,15481e-001,-2,87022e-005,2,80125e+000,-1,96600e+000,2,80125e+000,2,12020e+000,2,80125e+000,-2,54424e+000
2,16000e-001,-2,11490e-005,2,80800e+000,-1,85036e+000,2,80800e+000,2,00455e+000,2,80800e+000,-2,23585e+000
2,16519e-001,-1,76242e-005,2,81475e+000,-1,69616e+000,2,81475e+000,1,69616e+000,2,81475e+000,-2,12020e+000
2,17038e-001,-1,22530e-005,2,82150e+000,-1,58051e+000,2,82150e+000,1,38777e+000,2,82150e+000,-2,31295e+000
2,17558e-001,-7,88891e-006,2,82825e+000,-1,61906e+000,2,82825e+000,1,15647e+000,2,82825e+000,-2,42859e+000
2,18077e-001,1,84634e-006,2,83500e+000,-1,61906e+000,2,83500e+000,1,00228e+000,2,83500e+000,-2,69844e+000
2,18596e-001,1,89670e-005,2,84175e+000,-1,65761e+000,2,84175e+000,8,86629e-001,2,84175e+000,-3,00683e+000
2,19115e-001,1,37636e-005,2,84850e+000,-1,81181e+000,2,84850e+000,8,09531e-001,2,84850e+000,-3,27667e+000
2,19635e-001,-1,98062e-005,2,85525e+000,-1,88891e+000,2,85525e+000,8,48080e-001,2,85525e+000,-3,50797e+000
2,20154e-001,-5,99222e-005,2,86200e+000,-1,96600e+000,2,86200e+000,9,25179e-001,2,86200e+000,-3,54652e+000
2,20673e-001,-7,93927e-005,2,86875e+000,-1,96600e+000,2,86875e+000,1,00228e+000,2,86875e+000,-3,46942e+000
2,21192e-001,-7,75463e-005,2,87550e+000,-2,00455e+000,2,87550e+000,1,04083e+000,2,87550e+000,-3,27667e+000
2,21712e-001,-7,72107e-005,2,88225e+000,-2,00455e+000,2,88225e+000,1,00228e+000,2,88225e+000,-3,00683e+000
2,22231e-001,-8,32532e-005,2,88900e+000,-1,92746e+000,2,88900e+000,9,63728e-001,2,88900e+000,-2,81409e+000
2,22750e-001,-9,14778e-005,2,89575e+000,-1,88891e+000,2,89575e+000,8,86629e-001,2,89575e+000,-2,89118e+000
2,23269e-001,-9,68490e-005,2,90250e+000,-1,81181e+000,2,90250e+000,8,48080e-001,2,90250e+000,-2,89118e+000
2,23788e-001,-9,46670e-005,2,90925e+000,-1,69616e+000,2,90925e+000,8,09531e-001,2,90925e+000,-2,77554e+000
2,24308e-001,-8,09033e-005,2,91600e+000,-1,58051e+000,2,91600e+000,7,70982e-001,2,91600e+000,-2,69844e+000
2,24827e-001,-5,20333e-005,2,92275e+000,-1,58051e+000,2,92275e+000,7,32433e-001,2,92275e+000,-2,69844e+000
2,25346e-001,-2,78630e-005,2,92950e+000,-1,54196e+000,2,92950e+000,7,70982e-001,2,92950e+000,-2,85263e+000
2,25865e-001,-2,29953e-005,2,93625e+000,-1,58051e+000,2,93625e+000,9,63728e-001,2,93625e+000,-3,00683e+000
2,26385e-001,-3,44091e-005,2,94300e+000,-1,58051e+000,2,94300e+000,1,11792e+000,2,94300e+000,-2,96828e+000
2,26904e-001,-4,59907e-005,2,94975e+000,-1,65761e+000,2,94975e+000,1,34922e+000,2,94975e+000,-2,85263e+000
2,27423e-001,-5,10262e-005,2,95650e+000,-1,73471e+000,2,95650e+000,1,50342e+000,2,95650e+000,-2,73699e+000
2,27942e-001,-4,44800e-005,2,96325e+000,-1,73471e+000,2,96325e+000,1,58051e+000,2,96325e+000,-2,62134e+000
2,28462e-001,-1,39315e-005,2,97000e+000,-1,73471e+000,2,97000e+000,1,61906e+000,2,97000e+000,-2,42859e+000
2,28981e-001,4,14588e-005,2,97675e+000,-1,73471e+000,2,97675e+000,1,61906e+000,2,97675e+000,-2,39004e+000
2,29500e-001,1,05913e-004,2,98350e+000,-1,77326e+000,2,98350e+000,1,50342e+000,2,98350e+000,-2,42859e+000
2,30019e-001,1,57946e-004,2,99025e+000,-1,81181e+000,2,99025e+000,1,34922e+000,2,99025e+000,-2,50569e+000
2,30538e-001,1,83459e-004,2,99700e+000,-1,88891e+000,2,99700e+000,1,27212e+000,2,99700e+000,-2,50569e+000
2,31058e-001,2,15351e-004,3,00375e+000,-1,96600e+000,3,00375e+000,1,19502e+000,3,00375e+000,-2,62134e+000
2,31577e-001,2,47242e-004,3,01050e+000,-2,00455e+000,3,01050e+000,1,19502e+000,3,01050e+000,-2,77554e+000
2,32096e-001,2,27939e-004,3,01725e+000,-2,04310e+000,3,01725e+000,1,15647e+000,3,01725e+000,-2,85263e+000
2,32615e-001,1,56603e-004,3,02400e+000,-2,08165e+000,3,02400e+000,1,19502e+000,3,02400e+000,-2,96828e+000
2,33135e-001,8,84566e-005,3,03075e+000,-2,08165e+000,3,03075e+000,1,15647e+000,3,03075e+000,-3,04538e+000
2,33654e-001,5,72366e-005,3,03750e+000,-2,15875e+000,3,03750e+000,1,15647e+000,3,03750e+000,-3,08393e+000
2,34173e-001,3,10521e-005,3,04425e+000,-2,15875e+000,3,04425e+000,1,11792e+000,3,04425e+000,-3,00683e+000
2,34692e-001,-1,98062e-005,3,05100e+000,-2,15875e+000,3,05100e+000,1,15647e+000,3,05100e+000,-2,92973e+000
2,35212e-001,-7,23430e-005,3,05775e+000,-2,15875e+000,3,05775e+000,1,23357e+000,3,05775e+000,-2,89118e+000
2,35731e-001,-9,98703e-005,3,06450e+000,-2,12020e+000,3,06450e+000,1,27212e+000,3,06450e+000,-2,81409e+000
2,36250e-001,-9,73526e-005,3,07125e+000,-2,04310e+000,3,07125e+000,1,31067e+000,3,07125e+000,-2,77554e+000
2,36769e-001,-6,42863e-005,3,07800e+000,-1,96600e+000,3,07800e+000,1,42632e+000,3,07800e+000,-2,73699e+000
2,37288e-001,-1,00710e-006,3,08475e+000,-1,92746e+000,3,08475e+000,1,38777e+000,3,08475e+000,-2,65989e+000
2,37808e-001,1,76242e-005,3,09150e+000,-1,88891e+000,3,09150e+000,1,38777e+000,3,09150e+000,-2,69844e+000
2,38327e-001,-5,05226e-005,3,09825e+000,-1,92746e+000,3,09825e+000,1,38777e+000,3,09825e+000,-2,69844e+000
2,38846e-001,-1,34783e-004,3,10500e+000,-1,96600e+000,3,10500e+000,1,42632e+000,3,10500e+000,-2,69844e+000
2,39365e-001,-1,74060e-004,3,11175e+000,-2,00455e+000,3,11175e+000,1,38777e+000,3,11175e+000,-2,77554e+000
2,39885e-001,-1,84131e-004,3,11850e+000,-2,00455e+000,3,11850e+000,1,34922e+000,3,11850e+000,-2,85263e+000
2,40404e-001,-1,92020e-004,3,12525e+000,-2,00455e+000,3,12525e+000,1,23357e+000,3,12525e+000,-2,85263e+000
2,40923e-001,-1,96719e-004,3,13200e+000,-2,00455e+000,3,13200e+000,1,11792e+000,3,13200e+000,-2,89118e+000
2,41442e-001,-1,84802e-004,3,13875e+000,-2,04310e+000,3,13875e+000,1,07938e+000,3,13875e+000,-2,89118e+000
2,41962e-001,-1,43175e-004,3,14550e+000,-2,00455e+000,3,14550e+000,1,11792e+000,3,14550e+000,-2,89118e+000
2,42481e-001,-8,69459e-005,3,15225e+000,-2,00455e+000,3,15225e+000,1,19502e+000,3,15225e+000,-2,81409e+000
2,43000e-001,-4,44800e-005,3,15900e+000,-2,00455e+000,3,15900e+000,1,19502e+000,3,15900e+000,-2,77554e+000
2,43519e-001,-2,78630e-005,3,16575e+000,-2,00455e+000,3,16575e+000,1,23357e+000,3,16575e+000,-2,73699e+000
2,44038e-001,-3,64233e-005,3,17250e+000,-2,04310e+000,3,17250e+000,1,19502e+000,3,17250e+000,-2,69844e+000
2,44558e-001,-5,30404e-005,3,17925e+000,-2,04310e+000,3,17925e+000,1,19502e+000,3,17925e+000,-2,73699e+000
2,45077e-001,-5,38796e-005,3,18600e+000,-2,08165e+000,3,18600e+000,1,15647e+000,3,18600e+000,-2,81409e+000
2,45596e-001,-3,54162e-005,3,19275e+000,-2,08165e+000,3,19275e+000,1,11792e+000,3,19275e+000,-2,85263e+000
2,46115e-001,-8,89601e-006,3,19950e+000,-2,08165e+000,3,19950e+000,1,04083e+000,3,19950e+000,-2,85263e+000
2,46635e-001,1,76242e-005,3,20625e+000,-2,15875e+000,3,20625e+000,1,00228e+000,3,20625e+000,-2,85263e+000
2,47154e-001,3,34020e-005,3,21300e+000,-2,12020e+000,3,21300e+000,1,00228e+000,3,21300e+000,-2,85263e+000
2,47673e-001,4,12909e-005,3,21975e+000,-2,12020e+000,3,21975e+000,1,04083e+000,3,21975e+000,-2,89118e+000
2,48192e-001,4,28016e-005,3,22650e+000,-2,12020e+000,3,22650e+000,1,11792e+000,3,22650e+000,-2,92973e+000
2,48712e-001,4,21302e-005,3,23325e+000,-2,08165e+000,3,23325e+000,1,15647e+000,3,23325e+000,-2,96828e+000
2,49231e-001,4,54871e-005,3,24000e+000,-2,08165e+000,3,24000e+000,1,19502e+000,3,24000e+000,-2,96828e+000
2,49750e-001,5,16976e-005,3,24675e+000,-2,08165e+000,3,24675e+000,1,15647e+000,3,24675e+000,-2,92973e+000
2,50269e-001,5,62295e-005,3,25350e+000,-2,08165e+000,3,25350e+000,1,11792e+000,3,25350e+000,-2,92973e+000
2,50788e-001,5,85794e-005,3,26025e+000,-2,08165e+000,3,26025e+000,1,11792e+000,3,26025e+000,-2,89118e+000
2,51308e-001,6,02579e-005,3,26700e+000,-2,12020e+000,3,26700e+000,1,07938e+000,3,26700e+000,-2,92973e+000
2,51827e-001,6,09293e-005,3,27375e+000,-2,08165e+000,3,27375e+000,1,07938e+000,3,27375e+000,-2,92973e+000
2,52346e-001,6,36149e-005,3,28050e+000,-2,08165e+000,3,28050e+000,1,07938e+000,3,28050e+000,-2,96828e+000
2,52865e-001,6,52934e-005,3,28725e+000,-2,08165e+000,3,28725e+000,1,07938e+000,3,28725e+000,-2,96828e+000
2,53385e-001,6,19364e-005,3,29400e+000,-2,08165e+000,3,29400e+000,1,07938e+000,3,29400e+000,-2,96828e+000
2,53904e-001,5,69009e-005,3,30075e+000,-2,08165e+000,3,30075e+000,1,04083e+000,3,30075e+000,-2,96828e+000
2,54423e-001,5,62295e-005,3,30750e+000,-2,08165e+000,3,30750e+000,1,00228e+000,3,30750e+000,-2,96828e+000
2,54942e-001,6,96574e-005,3,31425e+000,-2,08165e+000,3,31425e+000,1,04083e+000,3,31425e+000,-2,96828e+000
2,55462e-001,8,87923e-005,3,32100e+000,-2,08165e+000,3,32100e+000,1,04083e+000,3,32100e+000,-2,96828e+000
2,55981e-001,8,84566e-005,3,32775e+000,-2,08165e+000,3,32775e+000,1,04083e+000,3,32775e+000,-2,92973e+000
2,56500e-001,6,78111e-005,3,33450e+000,-2,08165e+000,3,33450e+000,1,04083e+000,3,33450e+000,-2,92973e+000
2,57019e-001,4,04517e-005,3,34125e+000,-2,08165e+000,3,34125e+000,1,00228e+000,3,34125e+000,-2,85263e+000
2,57538e-001,1,98062e-005,3,34800e+000,-2,08165e+000,3,34800e+000,9,63728e-001,3,34800e+000,-2,85263e+000
2,58058e-001,8,22461e-006,3,35475e+000,-2,08165e+000,3,35475e+000,9,63728e-001,3,35475e+000,-2,81409e+000
2,58577e-001,4,53193e-006,3,36150e+000,-2,08165e+000,3,36150e+000,1,00228e+000,3,36150e+000,-2,85263e+000
2,59096e-001,1,32601e-005,3,36825e+000,-2,08165e+000,3,36825e+000,1,00228e+000,3,36825e+000,-2,89118e+000
2,59615e-001,3,40734e-005,3,37500e+000,-2,08165e+000,3,37500e+000,1,00228e+000,3,37500e+000,-2,89118e+000
2,60135e-001,5,75723e-005,3,38175e+000,-2,08165e+000,3,38175e+000,1,00228e+000,3,38175e+000,-2,89118e+000
2,60654e-001,9,33242e-005,3,38850e+000,-2,08165e+000,3,38850e+000,9,63728e-001,3,38850e+000,-2,85263e+000
2,61173e-001,1,31426e-004,3,39525e+000,-2,08165e+000,3,39525e+000,9,63728e-001,3,39525e+000,-2,85263e+000
2,61692e-001,1,38811e-004,3,40200e+000,-2,08165e+000,3,40200e+000,9,63728e-001,3,40200e+000,-2,85263e+000
2,62212e-001,1,13970e-004,3,40875e+000,-2,08165e+000,3,40875e+000,1,00228e+000,3,40875e+000,-2,85263e+000
2,62731e-001,6,93217e-005,3,41550e+000,-2,08165e+000,3,41550e+000,9,63728e-001,3,41550e+000,-2,81409e+000
2,63250e-001,2,13169e-005,3,42225e+000,-2,08165e+000,3,42225e+000,1,00228e+000,3,42225e+000,-2,81409e+000
2,63769e-001,-1,79599e-005,3,42900e+000,-2,08165e+000,3,42900e+000,1,00228e+000,3,42900e+000,-2,81409e+000
2,64288e-001,-4,04517e-005,3,43575e+000,-2,08165e+000,3,43575e+000,1,00228e+000,3,43575e+000,-2,77554e+000
2,64808e-001,-4,69978e-005,3,44250e+000,-2,08165e+000,3,44250e+000,9,63728e-001,3,44250e+000,-2,81409e+000
2,65327e-001,-4,88441e-005,3,44925e+000,-2,08165e+000,3,44925e+000,9,63728e-001,3,44925e+000,-2,81409e+000
2,65846e-001,-5,38796e-005,3,45600e+000,-2,08165e+000,3,45600e+000,1,00228e+000,3,45600e+000,-2,81409e+000
2,66365e-001,-6,10971e-005,3,46275e+000,-2,08165e+000,3,46275e+000,1,00228e+000,3,46275e+000,-2,81409e+000
2,66885e-001,-6,91539e-005,3,46950e+000,-2,08165e+000,3,46950e+000,1,00228e+000,3,46950e+000,-2,81409e+000
2,67404e-001,-7,20073e-005,3,47625e+000,-2,12020e+000,3,47625e+000,1,00228e+000,3,47625e+000,-2,81409e+000
2,67923e-001,-6,99931e-005,3,48300e+000,-2,08165e+000,3,48300e+000,1,00228e+000,3,48300e+000,-2,81409e+000
2,68442e-001,-6,27756e-005,3,48975e+000,-2,12020e+000,3,48975e+000,1,00228e+000,3,48975e+000,-2,81409e+000
2,68962e-001,-5,48867e-005,3,49650e+000,-2,12020e+000,3,49650e+000,1,00228e+000,3,49650e+000,-2,81409e+000
2,69481e-001,-5,89151e-005,3,50325e+000,-2,12020e+000,3,50325e+000,1,00228e+000,3,50325e+000,-2,81409e+000
2,70000e-001,-7,21752e-005,3,51000e+000,-2,12020e+000,3,51000e+000,1,00228e+000,3,51000e+000,-2,81409e+000
2,70519e-001,-7,33501e-005,3,51675e+000,-2,12020e+000,3,51675e+000,1,00228e+000,3,51675e+000,-2,81409e+000
2,71038e-001,-6,12650e-005,3,52350e+000,-2,12020e+000,3,52350e+000,1,00228e+000,3,52350e+000,-2,81409e+000
2,71558e-001,-5,38796e-005,3,53025e+000,-2,12020e+000,3,53025e+000,1,00228e+000,3,53025e+000,-2,81409e+000
2,72077e-001,-5,62295e-005,3,53700e+000,-2,12020e+000,3,53700e+000,1,00228e+000,3,53700e+000,-2,81409e+000
2,72596e-001,-5,60616e-005,3,54375e+000,-2,12020e+000,3,54375e+000,1,04083e+000,3,54375e+000,-2,77554e+000
2,73115e-001,-4,54871e-005,3,55050e+000,-2,12020e+000,3,55050e+000,1,04083e+000,3,55050e+000,-2,81409e+000
2,73635e-001,-2,63523e-005,3,55725e+000,-2,08165e+000,3,55725e+000,1,04083e+000,3,55725e+000,-2,81409e+000
2,74154e-001,-6,54612e-006,3,56400e+000,-2,04310e+000,3,56400e+000,1,04083e+000,3,56400e+000,-2,81409e+000
2,74673e-001,8,22461e-006,3,57075e+000,-2,04310e+000,3,57075e+000,1,00228e+000,3,57075e+000,-2,77554e+000
2,75192e-001,1,25887e-005,3,57750e+000,-2,04310e+000,3,57750e+000,1,00228e+000,3,57750e+000,-2,77554e+000
2,75712e-001,5,87472e-006,3,58425e+000,-2,04310e+000,3,58425e+000,1,00228e+000,3,58425e+000,-2,81409e+000
2,76231e-001,-3,18914e-006,3,59100e+000,-2,04310e+000,3,59100e+000,1,04083e+000,3,59100e+000,-2,89118e+000
2,76750e-001,-5,87472e-006,3,59775e+000,-2,04310e+000,3,59775e+000,1,04083e+000,3,59775e+000,-2,92973e+000
2,77269e-001,-3,86053e-006,3,60450e+000,-2,04310e+000,3,60450e+000,1,07938e+000,3,60450e+000,-3,00683e+000
2,77788e-001,1,17494e-006,3,61125e+000,-2,04310e+000,3,61125e+000,1,11792e+000,3,61125e+000,-3,04538e+000
2,78308e-001,6,54612e-006,3,61800e+000,-2,04310e+000,3,61800e+000,1,11792e+000,3,61800e+000,-3,12248e+000
2,78827e-001,1,02388e-005,3,62475e+000,-2,04310e+000,3,62475e+000,1,15647e+000,3,62475e+000,-3,19958e+000
2,79346e-001,1,32601e-005,3,63150e+000,-2,00455e+000,3,63150e+000,1,23357e+000,3,63150e+000,-3,23813e+000
2,79865e-001,1,25887e-005,3,63825e+000,-2,04310e+000,3,63825e+000,1,34922e+000,3,63825e+000,-3,23813e+000
2,80385e-001,9,06386e-006,3,64500e+000,-2,08165e+000,3,64500e+000,1,46487e+000,3,64500e+000,-3,12248e+000
2,80904e-001,2,13169e-005,3,65175e+000,-2,04310e+000,3,65175e+000,1,50342e+000,3,65175e+000,-2,85263e+000
2,81423e-001,5,47189e-005,3,65850e+000,-2,08165e+000,3,65850e+000,1,38777e+000,3,65850e+000,-2,69844e+000
2,81942e-001,6,71397e-005,3,66525e+000,-2,12020e+000,3,66525e+000,1,31067e+000,3,66525e+000,-2,81409e+000
2,82462e-001,4,06195e-005,3,67200e+000,-2,15875e+000,3,67200e+000,1,19502e+000,3,67200e+000,-3,08393e+000
2,82981e-001,1,10781e-005,3,67875e+000,-2,19730e+000,3,67875e+000,1,07938e+000,3,67875e+000,-3,04538e+000
2,83500e-001,1,22530e-005,3,68550e+000,-2,23585e+000,3,68550e+000,1,07938e+000,3,68550e+000,-2,85263e+000
2,84019e-001,4,22980e-005,3,69225e+000,-2,23585e+000,3,69225e+000,1,07938e+000,3,69225e+000,-2,77554e+000
2,84538e-001,8,49317e-005,3,69900e+000,-2,19730e+000,3,69900e+000,1,07938e+000,3,69900e+000,-2,92973e+000
2,85058e-001,1,06249e-004,3,70575e+000,-2,12020e+000,3,70575e+000,1,04083e+000,3,70575e+000,-3,04538e+000
2,85577e-001,8,87923e-005,3,71250e+000,-2,08165e+000,3,71250e+000,9,63728e-001,3,71250e+000,-3,04538e+000
2,86096e-001,5,82437e-005,3,71925e+000,-2,08165e+000,3,71925e+000,9,63728e-001,3,71925e+000,-3,00683e+000
2,86615e-001,4,66621e-005,3,72600e+000,-2,12020e+000,3,72600e+000,8,48080e-001,3,72600e+000,-2,96828e+000
2,87135e-001,4,28016e-005,3,73275e+000,-2,12020e+000,3,73275e+000,8,48080e-001,3,73275e+000,-2,96828e+000
2,87654e-001,2,87022e-005,3,73950e+000,-2,12020e+000,3,73950e+000,8,86629e-001,3,73950e+000,-3,00683e+000
2,88173e-001,4,53193e-006,3,74625e+000,-2,08165e+000,3,74625e+000,9,25179e-001,3,74625e+000,-3,04538e+000
2,88692e-001,-3,07164e-005,3,75300e+000,-2,08165e+000,3,75300e+000,1,00228e+000,3,75300e+000,-3,08393e+000
2,89212e-001,-7,15038e-005,3,75975e+000,-2,08165e+000,3,75975e+000,1,07938e+000,3,75975e+000,-3,08393e+000
2,89731e-001,-1,02724e-004,3,76650e+000,-2,08165e+000,3,76650e+000,1,15647e+000,3,76650e+000,-3,12248e+000
2,90250e-001,-1,17998e-004,3,77325e+000,-2,04310e+000,3,77325e+000,1,23357e+000,3,77325e+000,-3,16103e+000
2,90769e-001,-1,25048e-004,3,78000e+000,-2,08165e+000,3,78000e+000,1,19502e+000,3,78000e+000,-3,23813e+000
2,91288e-001,-1,29076e-004,3,78675e+000,-2,12020e+000,3,78675e+000,1,04083e+000,3,78675e+000,-3,23813e+000
2,91808e-001,-1,21691e-004,3,79350e+000,-2,15875e+000,3,79350e+000,1,04083e+000,3,79350e+000,-3,31522e+000
2,92327e-001,-1,00542e-004,3,80025e+000,-2,19730e+000,3,80025e+000,1,00228e+000,3,80025e+000,-3,31522e+000
2,92846e-001,-8,29175e-005,3,80700e+000,-2,12020e+000,3,80700e+000,8,86629e-001,3,80700e+000,-3,31522e+000
2,93365e-001,-7,77142e-005,3,81375e+000,-2,08165e+000,3,81375e+000,7,70982e-001,3,81375e+000,-3,31522e+000
2,93885e-001,-7,26787e-005,3,82050e+000,-2,12020e+000,3,82050e+000,6,55335e-001,3,82050e+000,-3,27667e+000
2,94404e-001,-6,26078e-005,3,82725e+000,-2,12020e+000,3,82725e+000,6,55335e-001,3,82725e+000,-3,35377e+000
2,94923e-001,-5,08583e-005,3,83400e+000,-2,08165e+000,3,83400e+000,6,55335e-001,3,83400e+000,-3,31522e+000
2,95442e-001,-3,57519e-005,3,84075e+000,-2,00455e+000,3,84075e+000,6,93884e-001,3,84075e+000,-3,16103e+000
2,95962e-001,-1,96384e-005,3,84750e+000,-1,88891e+000,3,84750e+000,8,09531e-001,3,84750e+000,-2,92973e+000
2,96481e-001,-1,49386e-005,3,85425e+000,-1,81181e+000,3,85425e+000,1,00228e+000,3,85425e+000,-2,81409e+000
2,97000e-001,-2,11490e-005,3,86100e+000,-1,77326e+000,3,86100e+000,1,19502e+000,3,86100e+000,-2,77554e+000
2,97519e-001,-2,55131e-005,3,86775e+000,-1,73471e+000,3,86775e+000,1,38777e+000,3,86775e+000,-2,77554e+000
2,98038e-001,-2,19883e-005,3,87450e+000,-1,77326e+000,3,87450e+000,1,58051e+000,3,87450e+000,-2,81409e+000
2,98558e-001,-1,76242e-005,3,88125e+000,-1,77326e+000,3,88125e+000,1,65761e+000,3,88125e+000,-2,85263e+000
2,99077e-001,-1,37636e-005,3,88800e+000,-1,77326e+000,3,88800e+000,1,61906e+000,3,88800e+000,-2,92973e+000
2,99596e-001,-7,72107e-006,3,89475e+000,-1,77326e+000,3,89475e+000,1,42632e+000,3,89475e+000,-2,89118e+000
3,00115e-001,-1,84634e-006,3,90150e+000,-1,77326e+000,3,90150e+000,1,23357e+000,3,90150e+000,-2,85263e+000
3,00635e-001,4,86763e-006,3,90825e+000,-1,73471e+000,3,90825e+000,1,19502e+000,3,90825e+000,-2,77554e+000
3,01154e-001,8,56031e-006,3,91500e+000,-1,77326e+000,3,91500e+000,1,31067e+000,3,91500e+000,-2,62134e+000
3,01673e-001,1,00710e-005,3,92175e+000,-1,77326e+000,3,92175e+000,1,42632e+000,3,92175e+000,-2,39004e+000
3,02192e-001,1,24208e-005,3,92850e+000,-1,65761e+000,3,92850e+000,1,42632e+000,3,92850e+000,-2,35150e+000
3,02712e-001,1,69528e-005,3,93525e+000,-1,50342e+000,3,93525e+000,1,34922e+000,3,93525e+000,-2,46714e+000
3,03231e-001,2,28275e-005,3,94200e+000,-1,38777e+000,3,94200e+000,1,31067e+000,3,94200e+000,-2,65989e+000
3,03750e-001,3,17235e-005,3,94875e+000,-1,38777e+000,3,94875e+000,1,34922e+000,3,94875e+000,-2,73699e+000
3,04269e-001,5,27047e-005,3,95550e+000,-1,46487e+000,3,95550e+000,1,31067e+000,3,95550e+000,-2,62134e+000
3,04788e-001,8,25818e-005,3,96225e+000,-1,50342e+000,3,96225e+000,1,31067e+000,3,96225e+000,-2,62134e+000
3,05308e-001,1,01717e-004,3,96900e+000,-1,42632e+000,3,96900e+000,1,31067e+000,3,96900e+000,-2,58279e+000
3,05827e-001,8,97993e-005,3,97575e+000,-1,46487e+000,3,97575e+000,1,11792e+000,3,97575e+000,-2,50569e+000
3,06346e-001,5,35439e-005,3,98250e+000,-1,46487e+000,3,98250e+000,9,63728e-001,3,98250e+000,-2,50569e+000
3,06865e-001,1,84634e-005,3,98925e+000,-1,46487e+000,3,98925e+000,1,07938e+000,3,98925e+000,-2,58279e+000
3,07385e-001,-1,51064e-006,3,99600e+000,-1,46487e+000,3,99600e+000,1,19502e+000,3,99600e+000,-2,58279e+000
3,07904e-001,-4,86763e-006,4,00275e+000,-1,42632e+000,4,00275e+000,1,27212e+000,4,00275e+000,-2,58279e+000
3,08423e-001,6,71397e-007,4,00950e+000,-1,38777e+000,4,00950e+000,1,34922e+000,4,00950e+000,-2,62134e+000
3,08942e-001,6,54612e-006,4,01625e+000,-1,31067e+000,4,01625e+000,1,34922e+000,4,01625e+000,-2,65989e+000
3,09462e-001,1,25887e-005,4,02300e+000,-1,34922e+000,4,02300e+000,1,38777e+000,4,02300e+000,-2,65989e+000
3,09981e-001,1,67849e-005,4,02975e+000,-1,50342e+000,4,02975e+000,1,31067e+000,4,02975e+000,-2,65989e+000
3,10500e-001,1,72885e-005,4,03650e+000,-1,65761e+000,4,03650e+000,1,23357e+000,4,03650e+000,-2,69844e+000
3,11019e-001,1,82956e-005,4,04325e+000,-1,85036e+000,4,04325e+000,1,11792e+000,4,04325e+000,-2,77554e+000
3,11538e-001,2,18204e-005,4,05000e+000,-1,96600e+000,4,05000e+000,9,63728e-001,4,05000e+000,-2,73699e+000
3,12058e-001,3,17235e-005,4,05675e+000,-2,04310e+000,4,05675e+000,1,04083e+000,4,05675e+000,-2,81409e+000
3,12577e-001,4,07874e-005,4,06350e+000,-2,08165e+000,4,06350e+000,1,23357e+000,4,06350e+000,-2,85263e+000
3,13096e-001,3,99481e-005,4,07025e+000,-2,04310e+000,4,07025e+000,1,46487e+000,4,07025e+000,-2,73699e+000
3,13615e-001,2,78630e-005,4,07700e+000,-1,88891e+000,4,07700e+000,1,69616e+000,4,07700e+000,-2,58279e+000
3,14135e-001,7,21752e-006,4,08375e+000,-1,65761e+000,4,08375e+000,1,85036e+000,4,08375e+000,-2,46714e+000
3,14654e-001,-8,56031e-006,4,09050e+000,-1,42632e+000,4,09050e+000,1,96600e+000,4,09050e+000,-2,58279e+000
3,15173e-001,-1,30922e-005,4,09725e+000,-1,31067e+000,4,09725e+000,2,04310e+000,4,09725e+000,-2,69844e+000
3,15692e-001,-1,19173e-005,4,10400e+000,-1,31067e+000,4,10400e+000,2,04310e+000,4,10400e+000,-2,77554e+000
3,16212e-001,-1,15816e-005,4,11075e+000,-1,42632e+000,4,11075e+000,1,96600e+000,4,11075e+000,-2,92973e+000
3,16731e-001,-1,05745e-005,4,11750e+000,-1,61906e+000,4,11750e+000,1,81181e+000,4,11750e+000,-2,96828e+000
3,17250e-001,-7,72107e-006,4,12425e+000,-1,77326e+000,4,12425e+000,1,61906e+000,4,12425e+000,-2,92973e+000
3,17769e-001,-2,85344e-006,4,13100e+000,-1,88891e+000,4,13100e+000,1,54196e+000,4,13100e+000,-2,85263e+000
3,18288e-001,2,85344e-006,4,13775e+000,-1,96600e+000,4,13775e+000,1,54196e+000,4,13775e+000,-2,81409e+000
3,18808e-001,0,00000e+000,4,14450e+000,-1,92746e+000,4,14450e+000,1,61906e+000,4,14450e+000,-2,77554e+000
3,19327e-001,-1,56100e-005,4,15125e+000,-1,81181e+000,4,15125e+000,1,73471e+000,4,15125e+000,-2,58279e+000
3,19846e-001,-3,07164e-005,4,15800e+000,-1,65761e+000,4,15800e+000,1,81181e+000,4,15800e+000,-2,42859e+000
3,20365e-001,-3,12200e-005,4,16475e+000,-1,42632e+000,4,16475e+000,1,96600e+000,4,16475e+000,-2,54424e+000
3,20885e-001,-1,93027e-005,4,17150e+000,-1,31067e+000,4,17150e+000,2,08165e+000,4,17150e+000,-2,69844e+000
3,21404e-001,-5,70687e-006,4,17825e+000,-1,27212e+000,4,17825e+000,2,15875e+000,4,17825e+000,-2,73699e+000
3,21923e-001,6,88182e-006,4,18500e+000,-1,27212e+000,4,18500e+000,2,19730e+000,4,18500e+000,-2,73699e+000
3,22442e-001,1,87991e-005,4,19175e+000,-1,34922e+000,4,19175e+000,2,15875e+000,4,19175e+000,-2,73699e+000
3,22962e-001,3,20592e-005,4,19850e+000,-1,46487e+000,4,19850e+000,2,00455e+000,4,19850e+000,-2,73699e+000
3,23481e-001,4,81727e-005,4,20525e+000,-1,54196e+000,4,20525e+000,1,88891e+000,4,20525e+000,-2,77554e+000
3,24000e-001,5,45510e-005,4,21200e+000,-1,65761e+000,4,21200e+000,1,81181e+000,4,21200e+000,-2,77554e+000
3,24519e-001,4,41444e-005,4,21875e+000,-1,73471e+000,4,21875e+000,1,73471e+000,4,21875e+000,-2,73699e+000
3,25038e-001,2,56809e-005,4,22550e+000,-1,73471e+000,4,22550e+000,1,69616e+000,4,22550e+000,-2,69844e+000
3,25558e-001,3,69268e-006,4,23225e+000,-1,69616e+000,4,23225e+000,1,73471e+000,4,23225e+000,-2,65989e+000
3,26077e-001,-1,76242e-005,4,23900e+000,-1,61906e+000,4,23900e+000,1,73471e+000,4,23900e+000,-2,62134e+000
3,26596e-001,-3,13878e-005,4,24575e+000,-1,58051e+000,4,24575e+000,1,77326e+000,4,24575e+000,-2,58279e+000
3,27115e-001,-3,64233e-005,4,25250e+000,-1,58051e+000,4,25250e+000,1,85036e+000,4,25250e+000,-2,62134e+000
3,27635e-001,-4,01160e-005,4,25925e+000,-1,61906e+000,4,25925e+000,1,92746e+000,4,25925e+000,-2,65989e+000
3,28154e-001,-4,98512e-005,4,26600e+000,-1,65761e+000,4,26600e+000,1,92746e+000,4,26600e+000,-2,65989e+000
3,28673e-001,-6,22721e-005,4,27275e+000,-1,69616e+000,4,27275e+000,1,92746e+000,4,27275e+000,-2,62134e+000
3,29192e-001,-6,56291e-005,4,27950e+000,-1,69616e+000,4,27950e+000,1,85036e+000,4,27950e+000,-2,58279e+000
3,29712e-001,-6,19364e-005,4,28625e+000,-1,73471e+000,4,28625e+000,1,81181e+000,4,28625e+000,-2,58279e+000
3,30231e-001,-5,94186e-005,4,29300e+000,-1,77326e+000,4,29300e+000,1,77326e+000,4,29300e+000,-2,65989e+000
3,30750e-001,-5,58938e-005,4,29975e+000,-1,81181e+000,4,29975e+000,1,77326e+000,4,29975e+000,-2,62134e+000
3,31269e-001,-4,66621e-005,4,30650e+000,-1,85036e+000,4,30650e+000,1,77326e+000,4,30650e+000,-2,69844e+000
3,31788e-001,-3,34020e-005,4,31325e+000,-1,85036e+000,4,31325e+000,1,81181e+000,4,31325e+000,-2,69844e+000
3,32308e-001,-2,16526e-005,4,32000e+000,-1,88891e+000,4,32000e+000,1,85036e+000,4,32000e+000,-2,69844e+000
3,32827e-001,-2,04776e-005,4,32675e+000,-1,92746e+000,4,32675e+000,1,85036e+000,4,32675e+000,-2,62134e+000
3,33346e-001,-2,34989e-005,4,33350e+000,-1,92746e+000,4,33350e+000,1,85036e+000,4,33350e+000,-2,62134e+000
3,33865e-001,-2,21561e-005,4,34025e+000,-2,00455e+000,4,34025e+000,1,81181e+000,4,34025e+000,-2,62134e+000
3,34385e-001,-1,39315e-005,4,34700e+000,-2,04310e+000,4,34700e+000,1,73471e+000,4,34700e+000,-2,69844e+000
3,34904e-001,-4,19623e-006,4,35375e+000,-2,08165e+000,4,35375e+000,1,69616e+000,4,35375e+000,-2,73699e+000
3,35423e-001,-6,71397e-007,4,36050e+000,-2,08165e+000,4,36050e+000,1,73471e+000,4,36050e+000,-2,77554e+000
3,35942e-001,-2,85344e-006,4,36725e+000,-2,04310e+000,4,36725e+000,1,85036e+000,4,36725e+000,-2,73699e+000
3,36462e-001,-7,55322e-006,4,37400e+000,-1,96600e+000,4,37400e+000,1,96600e+000,4,37400e+000,-2,65989e+000
3,36981e-001,-9,56741e-006,4,38075e+000,-1,88891e+000,4,38075e+000,1,96600e+000,4,38075e+000,-2,58279e+000
3,37500e-001,-5,53903e-006,4,38750e+000,-1,77326e+000,4,38750e+000,2,00455e+000,4,38750e+000,-2,62134e+000
3,38019e-001,2,34989e-006,4,39425e+000,-1,73471e+000,4,39425e+000,2,00455e+000,4,39425e+000,-2,62134e+000
3,38538e-001,9,23171e-006,4,40100e+000,-1,69616e+000,4,40100e+000,1,92746e+000,4,40100e+000,-2,65989e+000
3,39058e-001,7,72107e-006,4,40775e+000,-1,73471e+000,4,40775e+000,1,88891e+000,4,40775e+000,-2,73699e+000
3,39577e-001,2,34989e-006,4,41450e+000,-1,77326e+000,4,41450e+000,1,81181e+000,4,41450e+000,-2,81409e+000
3,40096e-001,0,00000e+000,4,42125e+000,-1,85036e+000,4,42125e+000,1,77326e+000,4,42125e+000,-2,85263e+000
3,40615e-001,-1,67849e-007,4,42800e+000,-1,88891e+000,4,42800e+000,1,73471e+000,4,42800e+000,-2,85263e+000
3,41135e-001,-1,00710e-006,4,43475e+000,-1,92746e+000,4,43475e+000,1,65761e+000,4,43475e+000,-2,81409e+000
3,41654e-001,4,86763e-006,4,44150e+000,-1,85036e+000,4,44150e+000,1,58051e+000,4,44150e+000,-2,85263e+000
3,42173e-001,1,86313e-005,4,44825e+000,-1,81181e+000,4,44825e+000,1,54196e+000,4,44825e+000,-2,81409e+000
3,42692e-001,3,18914e-005,4,45500e+000,-1,69616e+000,4,45500e+000,1,42632e+000,4,45500e+000,-2,62134e+000
3,43212e-001,4,06195e-005,4,46175e+000,-1,58051e+000,4,46175e+000,1,34922e+000,4,46175e+000,-2,54424e+000
3,43731e-001,4,93477e-005,4,46850e+000,-1,50342e+000,4,46850e+000,1,27212e+000,4,46850e+000,-2,65989e+000
3,44250e-001,5,42153e-005,4,47525e+000,-1,50342e+000,4,47525e+000,1,27212e+000,4,47525e+000,-2,69844e+000
3,44769e-001,4,85084e-005,4,48200e+000,-1,50342e+000,4,48200e+000,1,23357e+000,4,48200e+000,-2,65989e+000
3,45288e-001,3,30663e-005,4,48875e+000,-1,58051e+000,4,48875e+000,1,19502e+000,4,48875e+000,-2,62134e+000
3,45808e-001,1,99741e-005,4,49550e+000,-1,69616e+000,4,49550e+000,1,23357e+000,4,49550e+000,-2,69844e+000
3,46327e-001,3,32342e-005,4,50225e+000,-1,81181e+000,4,50225e+000,1,27212e+000,4,50225e+000,-2,69844e+000
3,46846e-001,7,43572e-005,4,50900e+000,-1,92746e+000,4,50900e+000,1,31067e+000,4,50900e+000,-2,65989e+000
3,47365e-001,1,08598e-004,4,51575e+000,-1,96600e+000,4,51575e+000,1,38777e+000,4,51575e+000,-2,62134e+000
3,47885e-001,1,13298e-004,4,52250e+000,-2,00455e+000,4,52250e+000,1,42632e+000,4,52250e+000,-2,58279e+000
3,48404e-001,1,04906e-004,4,52925e+000,-1,96600e+000,4,52925e+000,1,50342e+000,4,52925e+000,-2,62134e+000
3,48923e-001,9,31563e-005,4,53600e+000,-1,96600e+000,4,53600e+000,1,54196e+000,4,53600e+000,-2,73699e+000
3,49442e-001,7,45251e-005,4,54275e+000,-2,00455e+000,4,54275e+000,1,65761e+000,4,54275e+000,-2,77554e+000
3,49962e-001,4,58228e-005,4,54950e+000,-2,00455e+000,4,54950e+000,1,65761e+000,4,54950e+000,-2,69844e+000
3,50481e-001,9,39956e-006,4,55625e+000,-2,08165e+000,4,55625e+000,1,61906e+000,4,55625e+000,-2,69844e+000
3,51000e-001,-2,98772e-005,4,56300e+000,-2,15875e+000,4,56300e+000,1,58051e+000,4,56300e+000,-2,73699e+000
3,51519e-001,-5,80758e-005,4,56975e+000,-2,19730e+000,4,56975e+000,1,58051e+000,4,56975e+000,-2,69844e+000
3,52038e-001,-7,57000e-005,4,57650e+000,-2,19730e+000,4,57650e+000,1,61906e+000,4,57650e+000,-2,73699e+000
3,52558e-001,-1,02724e-004,4,58325e+000,-2,15875e+000,4,58325e+000,1,65761e+000,4,58325e+000,-2,69844e+000
3,53077e-001,-1,31090e-004,4,59000e+000,-2,04310e+000,4,59000e+000,1,69616e+000,4,59000e+000,-2,65989e+000
3,53596e-001,-1,40826e-004,4,59675e+000,-1,96600e+000,4,59675e+000,1,77326e+000,4,59675e+000,-2,62134e+000
3,54115e-001,-1,36126e-004,4,60350e+000,-1,88891e+000,4,60350e+000,1,85036e+000,4,60350e+000,-2,58279e+000
3,54635e-001,-1,24712e-004,4,61025e+000,-1,85036e+000,4,61025e+000,1,85036e+000,4,61025e+000,-2,58279e+000
3,55154e-001,-1,12795e-004,4,61700e+000,-1,85036e+000,4,61700e+000,1,77326e+000,4,61700e+000,-2,62134e+000
3,55673e-001,-1,01549e-004,4,62375e+000,-1,92746e+000,4,62375e+000,1,73471e+000,4,62375e+000,-2,65989e+000
3,56192e-001,-8,84566e-005,4,63050e+000,-2,00455e+000,4,63050e+000,1,61906e+000,4,63050e+000,-2,54424e+000
3,56712e-001,-6,89860e-005,4,63725e+000,-2,08165e+000,4,63725e+000,1,58051e+000,4,63725e+000,-2,50569e+000
3,57231e-001,-4,31373e-005,4,64400e+000,-2,12020e+000,4,64400e+000,1,58051e+000,4,64400e+000,-2,54424e+000
3,57750e-001,-3,07164e-005,4,65075e+000,-2,15875e+000,4,65075e+000,1,65761e+000,4,65075e+000,-2,62134e+000
3,58269e-001,-3,70947e-005,4,65750e+000,-2,15875e+000,4,65750e+000,1,73471e+000,4,65750e+000,-2,58279e+000
3,58788e-001,-4,14588e-005,4,66425e+000,-2,08165e+000,4,66425e+000,1,77326e+000,4,66425e+000,-2,54424e+000
3,59308e-001,-3,30663e-005,4,67100e+000,-2,00455e+000,4,67100e+000,1,81181e+000,4,67100e+000,-2,54424e+000
3,59827e-001,-1,69528e-005,4,67775e+000,-2,00455e+000,4,67775e+000,1,85036e+000,4,67775e+000,-2,54424e+000
3,60346e-001,-1,51064e-006,4,68450e+000,-2,08165e+000,4,68450e+000,1,92746e+000,4,68450e+000,-2,62134e+000
3,60865e-001,5,03548e-006,4,69125e+000,-2,12020e+000,4,69125e+000,1,92746e+000,4,69125e+000,-2,69844e+000
3,61385e-001,4,53193e-006,4,69800e+000,-2,15875e+000,4,69800e+000,1,92746e+000,4,69800e+000,-2,62134e+000
3,61904e-001,8,56031e-006,4,70475e+000,-2,15875e+000,4,70475e+000,1,88891e+000,4,70475e+000,-2,50569e+000
3,62423e-001,2,23239e-005,4,71150e+000,-2,08165e+000,4,71150e+000,1,88891e+000,4,71150e+000,-2,50569e+000
3,62942e-001,3,50805e-005,4,71825e+000,-2,04310e+000,4,71825e+000,1,92746e+000,4,71825e+000,-2,50569e+000
3,63462e-001,4,26337e-005,4,72500e+000,-2,00455e+000,4,72500e+000,1,96600e+000,4,72500e+000,-2,58279e+000
3,63981e-001,4,98512e-005,4,73175e+000,-2,00455e+000,4,73175e+000,2,04310e+000,4,73175e+000,-2,58279e+000
3,64500e-001,5,25368e-005,4,73850e+000,-2,00455e+000,4,73850e+000,2,00455e+000,4,73850e+000,-2,58279e+000
3,65019e-001,4,34730e-005,4,74525e+000,-2,04310e+000,4,74525e+000,1,92746e+000,4,74525e+000,-2,54424e+000
3,65538e-001,3,13878e-005,4,75200e+000,-2,12020e+000,4,75200e+000,1,81181e+000,4,75200e+000,-2,50569e+000
3,66058e-001,2,09812e-005,4,75875e+000,-2,08165e+000,4,75875e+000,1,73471e+000,4,75875e+000,-2,50569e+000
3,66577e-001,1,02388e-005,4,76550e+000,-2,08165e+000,4,76550e+000,1,73471e+000,4,76550e+000,-2,50569e+000
3,67096e-001,2,18204e-006,4,77225e+000,-2,00455e+000,4,77225e+000,1,73471e+000,4,77225e+000,-2,54424e+000
3,67615e-001,5,53903e-006,4,77900e+000,-1,92746e+000,4,77900e+000,1,77326e+000,4,77900e+000,-2,58279e+000
3,68135e-001,2,13169e-005,4,78575e+000,-1,92746e+000,4,78575e+000,1,85036e+000,4,78575e+000,-2,62134e+000
3,68654e-001,4,61585e-005,4,79250e+000,-1,96600e+000,4,79250e+000,1,92746e+000,4,79250e+000,-2,58279e+000
3,69173e-001,8,15747e-005,4,79925e+000,-1,92746e+000,4,79925e+000,1,92746e+000,4,79925e+000,-2,50569e+000
3,69692e-001,1,14641e-004,4,80600e+000,-1,85036e+000,4,80600e+000,1,92746e+000,4,80600e+000,-2,46714e+000
3,70212e-001,1,28740e-004,4,81275e+000,-1,81181e+000,4,81275e+000,1,85036e+000,4,81275e+000,-2,42859e+000
3,70731e-001,1,20684e-004,4,81950e+000,-1,81181e+000,4,81950e+000,1,77326e+000,4,81950e+000,-2,54424e+000
3,71250e-001,9,58419e-005,4,82625e+000,-1,85036e+000,4,82625e+000,1,73471e+000,4,82625e+000,-2,58279e+000
3,71769e-001,6,46220e-005,4,83300e+000,-1,92746e+000,4,83300e+000,1,69616e+000,4,83300e+000,-2,62134e+000
3,72288e-001,3,65911e-005,4,83975e+000,-1,92746e+000,4,83975e+000,1,73471e+000,4,83975e+000,-2,62134e+000
3,72808e-001,1,69528e-005,4,84650e+000,-1,96600e+000,4,84650e+000,1,73471e+000,4,84650e+000,-2,58279e+000
3,73327e-001,8,89601e-006,4,85325e+000,-1,92746e+000,4,85325e+000,1,73471e+000,4,85325e+000,-2,54424e+000
3,73846e-001,3,02129e-006,4,86000e+000,-1,88891e+000,4,86000e+000,1,73471e+000,4,86000e+000,-2,54424e+000
3,74365e-001,-9,23171e-006,4,86675e+000,-1,85036e+000,4,86675e+000,1,69616e+000,4,86675e+000,-2,50569e+000
3,74885e-001,-2,65202e-005,4,87350e+000,-1,77326e+000,4,87350e+000,1,69616e+000,4,87350e+000,-2,50569e+000
3,75404e-001,-4,02838e-005,4,88025e+000,-1,73471e+000,4,88025e+000,1,65761e+000,4,88025e+000,-2,46714e+000
3,75923e-001,-4,64942e-005,4,88700e+000,-1,73471e+000,4,88700e+000,1,61906e+000,4,88700e+000,-2,50569e+000
3,76442e-001,-4,71656e-005,4,89375e+000,-1,73471e+000,4,89375e+000,1,65761e+000,4,89375e+000,-2,54424e+000
3,76962e-001,-4,31373e-005,4,90050e+000,-1,77326e+000,4,90050e+000,1,69616e+000,4,90050e+000,-2,62134e+000
3,77481e-001,-3,57519e-005,4,90725e+000,-1,81181e+000,4,90725e+000,1,73471e+000,4,90725e+000,-2,62134e+000
3,78000e-001,-2,97093e-005,4,91400e+000,-1,81181e+000,4,91400e+000,1,73471e+000,4,91400e+000,-2,62134e+000
3,78519e-001,-2,85344e-005,4,92075e+000,-1,85036e+000,4,92075e+000,1,73471e+000,4,92075e+000,-2,58279e+000
3,79038e-001,-3,65911e-005,4,92750e+000,-1,85036e+000,4,92750e+000,1,69616e+000,4,92750e+000,-2,54424e+000
3,79558e-001,-5,58938e-005,4,93425e+000,-1,85036e+000,4,93425e+000,1,65761e+000,4,93425e+000,-2,54424e+000
3,80077e-001,-8,12390e-005,4,94100e+000,-1,88891e+000,4,94100e+000,1,61906e+000,4,94100e+000,-2,58279e+000
3,80596e-001,-9,85275e-005,4,94775e+000,-1,96600e+000,4,94775e+000,1,58051e+000,4,94775e+000,-2,58279e+000
3,81115e-001,-9,88632e-005,4,95450e+000,-2,04310e+000,4,95450e+000,1,58051e+000,4,95450e+000,-2,62134e+000
3,81635e-001,-8,50996e-005,4,96125e+000,-2,08165e+000,4,96125e+000,1,58051e+000,4,96125e+000,-2,69844e+000
3,82154e-001,-6,49577e-005,4,96800e+000,-2,12020e+000,4,96800e+000,1,58051e+000,4,96800e+000,-2,73699e+000
3,82673e-001,-4,71656e-005,4,97475e+000,-2,15875e+000,4,97475e+000,1,54196e+000,4,97475e+000,-2,73699e+000
3,83192e-001,-3,60876e-005,4,98150e+000,-2,15875e+000,4,98150e+000,1,54196e+000,4,98150e+000,-2,73699e+000
3,83712e-001,-2,78630e-005,4,98825e+000,-2,15875e+000,4,98825e+000,1,58051e+000,4,98825e+000,-2,73699e+000
3,84231e-001,-2,03098e-005,4,99500e+000,-2,12020e+000,4,99500e+000,1,54196e+000,4,99500e+000,-2,69844e+000
3,84750e-001,-1,44350e-005,5,00175e+000,-2,04310e+000,5,00175e+000,1,54196e+000,5,00175e+000,-2,62134e+000
3,85269e-001,-7,88891e-006,5,00850e+000,-2,00455e+000,5,00850e+000,1,54196e+000,5,00850e+000,-2,62134e+000
3,85788e-001,-1,84634e-006,5,01525e+000,-1,92746e+000,5,01525e+000,1,50342e+000,5,01525e+000,-2,62134e+000
3,86308e-001,2,85344e-006,5,02200e+000,-1,88891e+000,5,02200e+000,1,46487e+000,5,02200e+000,-2,62134e+000
3,86827e-001,8,22461e-006,5,02875e+000,-1,88891e+000,5,02875e+000,1,46487e+000,5,02875e+000,-2,65989e+000
3,87346e-001,1,32601e-005,5,03550e+000,-1,92746e+000,5,03550e+000,1,46487e+000,5,03550e+000,-2,65989e+000
3,87865e-001,1,69528e-005,5,04225e+000,-1,96600e+000,5,04225e+000,1,50342e+000,5,04225e+000,-2,69844e+000
3,88385e-001,1,77920e-005,5,04900e+000,-1,96600e+000,5,04900e+000,1,50342e+000,5,04900e+000,-2,62134e+000
3,88904e-001,1,19173e-005,5,05575e+000,-1,96600e+000,5,05575e+000,1,46487e+000,5,05575e+000,-2,58279e+000
3,89423e-001,8,22461e-006,5,06250e+000,-2,00455e+000,5,06250e+000,1,42632e+000,5,06250e+000,-2,65989e+000
3,89942e-001,2,34989e-005,5,06925e+000,-2,00455e+000,5,06925e+000,1,38777e+000,5,06925e+000,-2,62134e+000
3,90462e-001,4,69978e-005,5,07600e+000,-2,00455e+000,5,07600e+000,1,34922e+000,5,07600e+000,-2,54424e+000
3,90981e-001,5,89151e-005,5,08275e+000,-1,96600e+000,5,08275e+000,1,34922e+000,5,08275e+000,-2,42859e+000
3,91500e-001,6,84825e-005,5,08950e+000,-1,85036e+000,5,08950e+000,1,38777e+000,5,08950e+000,-2,42859e+000
3,92019e-001,7,72107e-005,5,09625e+000,-1,85036e+000,5,09625e+000,1,46487e+000,5,09625e+000,-2,39004e+000
3,92538e-001,7,35180e-005,5,10300e+000,-1,85036e+000,5,10300e+000,1,58051e+000,5,10300e+000,-2,46714e+000
3,93058e-001,5,99222e-005,5,10975e+000,-1,92746e+000,5,10975e+000,1,69616e+000,5,10975e+000,-2,46714e+000
3,93577e-001,4,91798e-005,5,11650e+000,-2,04310e+000,5,11650e+000,1,73471e+000,5,11650e+000,-2,50569e+000
3,94096e-001,4,24659e-005,5,12325e+000,-2,15875e+000,5,12325e+000,1,81181e+000,5,12325e+000,-2,46714e+000
3,94615e-001,3,37377e-005,5,13000e+000,-2,27440e+000,5,13000e+000,1,81181e+000,5,13000e+000,-2,54424e+000
3,95135e-001,2,03098e-005,5,13675e+000,-2,35150e+000,5,13675e+000,1,88891e+000,5,13675e+000,-2,62134e+000
3,95654e-001,5,87472e-006,5,14350e+000,-2,35150e+000,5,14350e+000,1,88891e+000,5,14350e+000,-2,58279e+000
3,96173e-001,-3,52483e-006,5,15025e+000,-2,35150e+000,5,15025e+000,1,92746e+000,5,15025e+000,-2,50569e+000
3,96692e-001,-1,19173e-005,5,15700e+000,-2,27440e+000,5,15700e+000,1,92746e+000,5,15700e+000,-2,50569e+000
3,97212e-001,-7,21752e-006,5,16375e+000,-2,23585e+000,5,16375e+000,1,96600e+000,5,16375e+000,-2,46714e+000
3,97731e-001,3,08843e-005,5,17050e+000,-2,15875e+000,5,17050e+000,1,96600e+000,5,17050e+000,-2,46714e+000
3,98250e-001,7,35180e-005,5,17725e+000,-2,12020e+000,5,17725e+000,2,00455e+000,5,17725e+000,-2,42859e+000
3,98769e-001,7,90570e-005,5,18400e+000,-2,04310e+000,5,18400e+000,2,00455e+000,5,18400e+000,-2,39004e+000
3,99288e-001,2,60166e-005,5,19075e+000,-2,04310e+000,5,19075e+000,2,00455e+000,5,19075e+000,-2,39004e+000
3,99808e-001,-5,18654e-005,5,19750e+000,-2,00455e+000,5,19750e+000,1,96600e+000,5,19750e+000,-2,42859e+000
4,00327e-001,-1,08263e-004,5,20425e+000,-2,04310e+000,5,20425e+000,1,96600e+000,5,20425e+000,-2,46714e+000
4,00846e-001,-1,31258e-004,5,21100e+000,-2,08165e+000,5,21100e+000,1,96600e+000,5,21100e+000,-2,54424e+000
4,01365e-001,-1,31090e-004,5,21775e+000,-2,12020e+000,5,21775e+000,1,92746e+000,5,21775e+000,-2,50569e+000
4,01885e-001,-1,12291e-004,5,22450e+000,-2,12020e+000,5,22450e+000,1,88891e+000,5,22450e+000,-2,46714e+000
4,02404e-001,-7,87213e-005,5,23125e+000,-2,08165e+000,5,23125e+000,1,88891e+000,5,23125e+000,-2,50569e+000
4,02923e-001,-4,24659e-005,5,23800e+000,-2,08165e+000,5,23800e+000,1,88891e+000,5,23800e+000,-2,50569e+000
4,03442e-001,-1,37636e-005,5,24475e+000,-2,04310e+000,5,24475e+000,1,88891e+000,5,24475e+000,-2,50569e+000
4,03962e-001,6,54612e-006,5,25150e+000,-1,96600e+000,5,25150e+000,1,85036e+000,5,25150e+000,-2,46714e+000
4,04481e-001,1,32601e-005,5,25825e+000,-1,92746e+000,5,25825e+000,1,85036e+000,5,25825e+000,-2,42859e+000
4,05000e-001,5,20333e-006,5,26500e+000,-1,92746e+000,5,26500e+000,1,85036e+000,5,26500e+000,-2,46714e+000
4,05519e-001,-6,88182e-006,5,27175e+000,-1,88891e+000,5,27175e+000,1,88891e+000,5,27175e+000,-2,50569e+000
4,06038e-001,-1,42672e-005,5,27850e+000,-1,92746e+000,5,27850e+000,1,88891e+000,5,27850e+000,-2,54424e+000
4,06558e-001,-1,71206e-005,5,28525e+000,-1,92746e+000,5,28525e+000,1,88891e+000,5,28525e+000,-2,50569e+000
4,07077e-001,-1,49386e-005,5,29200e+000,-1,92746e+000,5,29200e+000,1,85036e+000,5,29200e+000,-2,50569e+000
4,07596e-001,-1,34279e-005,5,29875e+000,-1,92746e+000,5,29875e+000,1,85036e+000,5,29875e+000,-2,46714e+000
4,08115e-001,-1,52743e-005,5,30550e+000,-1,88891e+000,5,30550e+000,1,81181e+000,5,30550e+000,-2,42859e+000
4,08635e-001,-2,11490e-005,5,31225e+000,-1,88891e+000,5,31225e+000,1,77326e+000,5,31225e+000,-2,42859e+000
4,09154e-001,-3,07164e-005,5,31900e+000,-1,85036e+000,5,31900e+000,1,73471e+000,5,31900e+000,-2,42859e+000
4,09673e-001,-3,77661e-005,5,32575e+000,-1,85036e+000,5,32575e+000,1,73471e+000,5,32575e+000,-2,42859e+000
4,10192e-001,-4,04517e-005,5,33250e+000,-1,85036e+000,5,33250e+000,1,69616e+000,5,33250e+000,-2,42859e+000
4,10712e-001,-3,72625e-005,5,33925e+000,-1,85036e+000,5,33925e+000,1,69616e+000,5,33925e+000,-2,42859e+000
4,11231e-001,-2,97093e-005,5,34600e+000,-1,85036e+000,5,34600e+000,1,65761e+000,5,34600e+000,-2,42859e+000
4,11750e-001,-2,13169e-005,5,35275e+000,-1,85036e+000,5,35275e+000,1,65761e+000,5,35275e+000,-2,42859e+000
4,12269e-001,-1,22530e-005,5,35950e+000,-1,85036e+000,5,35950e+000,1,61906e+000,5,35950e+000,-2,42859e+000
4,12788e-001,-3,18914e-006,5,36625e+000,-1,85036e+000,5,36625e+000,1,61906e+000,5,36625e+000,-2,42859e+000
4,13308e-001,-1,51064e-006,5,37300e+000,-1,85036e+000,5,37300e+000,1,58051e+000,5,37300e+000,-2,46714e+000
4,13827e-001,-7,21752e-006,5,37975e+000,-1,81181e+000,5,37975e+000,1,58051e+000,5,37975e+000,-2,42859e+000
4,14346e-001,-1,19173e-005,5,38650e+000,-1,81181e+000,5,38650e+000,1,58051e+000,5,38650e+000,-2,42859e+000
4,14865e-001,-1,09102e-005,5,39325e+000,-1,85036e+000,5,39325e+000,1,61906e+000,5,39325e+000,-2,42859e+000
4,15385e-001,8,39246e-007,5,40000e+000,-1,92746e+000,5,40000e+000,1,65761e+000,5,40000e+000,-2,42859e+000
4,15904e-001,5,03548e-005,5,40675e+000,-1,92746e+000,5,40675e+000,1,65761e+000,5,40675e+000,-2,46714e+000
4,16423e-001,1,14305e-004,5,41350e+000,-1,92746e+000,5,41350e+000,1,69616e+000,5,41350e+000,-2,46714e+000
4,16942e-001,1,38979e-004,5,42025e+000,-1,92746e+000,5,42025e+000,1,73471e+000,5,42025e+000,-2,46714e+000
4,17462e-001,1,13802e-004,5,42700e+000,-1,96600e+000,5,42700e+000,1,69616e+000,5,42700e+000,-2,54424e+000
4,17981e-001,5,85794e-005,5,43375e+000,-1,96600e+000,5,43375e+000,1,69616e+000,5,43375e+000,-2,54424e+000
4,18500e-001,3,35698e-007,5,44050e+000,-2,00455e+000,5,44050e+000,1,69616e+000,5,44050e+000,-2,54424e+000
4,19019e-001,-4,14588e-005,5,44725e+000,-2,00455e+000,5,44725e+000,1,65761e+000,5,44725e+000,-2,50569e+000
4,19538e-001,-5,99222e-005,5,45400e+000,-2,04310e+000,5,45400e+000,1,61906e+000,5,45400e+000,-2,58279e+000
4,20058e-001,-6,41184e-005,5,46075e+000,-2,08165e+000,5,46075e+000,1,61906e+000,5,46075e+000,-2,62134e+000
4,20577e-001,-6,17685e-005,5,46750e+000,-2,15875e+000,5,46750e+000,1,61906e+000,5,46750e+000,-2,73699e+000
4,21096e-001,-5,38796e-005,5,47425e+000,-2,12020e+000,5,47425e+000,1,61906e+000,5,47425e+000,-2,73699e+000
4,21615e-001,-4,43122e-005,5,48100e+000,-2,19730e+000,5,48100e+000,1,65761e+000,5,48100e+000,-2,77554e+000
4,22135e-001,-3,15557e-005,5,48775e+000,-2,19730e+000,5,48775e+000,1,65761e+000,5,48775e+000,-2,81409e+000
4,22654e-001,-2,61845e-005,5,49450e+000,-2,19730e+000,5,49450e+000,1,65761e+000,5,49450e+000,-2,85263e+000
4,23173e-001,-3,45769e-005,5,50125e+000,-2,15875e+000,5,50125e+000,1,69616e+000,5,50125e+000,-2,81409e+000
4,23692e-001,-4,07874e-005,5,50800e+000,-2,12020e+000,5,50800e+000,1,69616e+000,5,50800e+000,-2,77554e+000
4,24212e-001,-2,95415e-005,5,51475e+000,-2,08165e+000,5,51475e+000,1,69616e+000,5,51475e+000,-2,77554e+000
4,24731e-001,-5,20333e-006,5,52150e+000,-2,04310e+000,5,52150e+000,1,65761e+000,5,52150e+000,-2,81409e+000
4,25250e-001,2,11490e-005,5,52825e+000,-1,96600e+000,5,52825e+000,1,61906e+000,5,52825e+000,-2,81409e+000
4,25769e-001,4,58228e-005,5,53500e+000,-1,88891e+000,5,53500e+000,1,61906e+000,5,53500e+000,-2,89118e+000
4,26288e-001,6,22721e-005,5,54175e+000,-1,85036e+000,5,54175e+000,1,58051e+000,5,54175e+000,-2,92973e+000
4,26808e-001,6,76432e-005,5,54850e+000,-1,77326e+000,5,54850e+000,1,58051e+000,5,54850e+000,-3,00683e+000
4,27327e-001,6,36149e-005,5,55525e+000,-1,73471e+000,5,55525e+000,1,58051e+000,5,55525e+000,-3,04538e+000
4,27846e-001,5,32082e-005,5,56200e+000,-1,73471e+000,5,56200e+000,1,50342e+000,5,56200e+000,-3,04538e+000
4,28365e-001,3,82696e-005,5,56875e+000,-1,77326e+000,5,56875e+000,1,42632e+000,5,56875e+000,-2,96828e+000
4,28885e-001,2,21561e-005,5,57550e+000,-1,81181e+000,5,57550e+000,1,38777e+000,5,57550e+000,-2,96828e+000
4,29404e-001,7,72107e-006,5,58225e+000,-1,77326e+000,5,58225e+000,1,38777e+000,5,58225e+000,-2,92973e+000
4,29923e-001,3,35698e-007,5,58900e+000,-1,77326e+000,5,58900e+000,1,42632e+000,5,58900e+000,-2,92973e+000
4,30442e-001,-1,51064e-006,5,59575e+000,-1,73471e+000,5,59575e+000,1,38777e+000,5,59575e+000,-2,85263e+000
4,30962e-001,-2,51774e-006,5,60250e+000,-1,73471e+000,5,60250e+000,1,34922e+000,5,60250e+000,-2,81409e+000
4,31481e-001,-7,55322e-006,5,60925e+000,-1,73471e+000,5,60925e+000,1,31067e+000,5,60925e+000,-2,81409e+000
4,32000e-001,-1,71206e-005,5,61600e+000,-1,81181e+000,5,61600e+000,1,31067e+000,5,61600e+000,-2,85263e+000
4,32519e-001,-2,45060e-005,5,62275e+000,-1,88891e+000,5,62275e+000,1,31067e+000,5,62275e+000,-2,89118e+000
4,33038e-001,-2,71916e-005,5,62950e+000,-1,96600e+000,5,62950e+000,1,31067e+000,5,62950e+000,-2,92973e+000
4,33558e-001,-3,59197e-005,5,63625e+000,-2,00455e+000,5,63625e+000,1,34922e+000,5,63625e+000,-2,92973e+000
4,34077e-001,-7,06645e-005,5,64300e+000,-2,08165e+000,5,64300e+000,1,34922e+000,5,64300e+000,-2,85263e+000
4,34596e-001,-1,11955e-004,5,64975e+000,-2,12020e+000,5,64975e+000,1,31067e+000,5,64975e+000,-2,77554e+000
4,35115e-001,-1,27398e-004,5,65650e+000,-2,15875e+000,5,65650e+000,1,27212e+000,5,65650e+000,-2,73699e+000
4,35635e-001,-1,13130e-004,5,66325e+000,-2,19730e+000,5,66325e+000,1,27212e+000,5,66325e+000,-2,65989e+000
4,36154e-001,-8,30854e-005,5,67000e+000,-2,19730e+000,5,67000e+000,1,31067e+000,5,67000e+000,-2,62134e+000
4,36673e-001,-4,98512e-005,5,67675e+000,-2,19730e+000,5,67675e+000,1,31067e+000,5,67675e+000,-2,58279e+000
4,37192e-001,-1,40993e-005,5,68350e+000,-2,12020e+000,5,68350e+000,1,31067e+000,5,68350e+000,-2,58279e+000
4,37712e-001,2,53452e-005,5,69025e+000,-2,08165e+000,5,69025e+000,1,34922e+000,5,69025e+000,-2,58279e+000
4,38231e-001,6,16007e-005,5,69700e+000,-2,04310e+000,5,69700e+000,1,38777e+000,5,69700e+000,-2,58279e+000
4,38750e-001,9,04707e-005,5,70375e+000,-2,04310e+000,5,70375e+000,1,46487e+000,5,70375e+000,-2,62134e+000
4,39269e-001,1,06584e-004,5,71050e+000,-2,00455e+000,5,71050e+000,1,54196e+000,5,71050e+000,-2,73699e+000
4,39788e-001,9,78561e-005,5,71725e+000,-2,00455e+000,5,71725e+000,1,58051e+000,5,71725e+000,-2,81409e+000
4,40308e-001,6,41184e-005,5,72400e+000,-1,96600e+000,5,72400e+000,1,65761e+000,5,72400e+000,-2,92973e+000
4,40827e-001,3,30663e-005,5,73075e+000,-1,96600e+000,5,73075e+000,1,73471e+000,5,73075e+000,-2,96828e+000
4,41346e-001,1,89670e-005,5,73750e+000,-2,00455e+000,5,73750e+000,1,85036e+000,5,73750e+000,-3,04538e+000
4,41865e-001,1,64492e-005,5,74425e+000,-2,00455e+000,5,74425e+000,1,96600e+000,5,74425e+000,-3,04538e+000
4,42385e-001,2,71916e-005,5,75100e+000,-1,96600e+000,5,75100e+000,2,04310e+000,5,75100e+000,-3,00683e+000
4,42904e-001,5,92508e-005,5,75775e+000,-1,88891e+000,5,75775e+000,2,04310e+000,5,75775e+000,-2,85263e+000
4,43423e-001,8,94636e-005,5,76450e+000,-1,81181e+000,5,76450e+000,1,96600e+000,5,76450e+000,-2,65989e+000
4,43942e-001,9,34920e-005,5,77125e+000,-1,77326e+000,5,77125e+000,1,85036e+000,5,77125e+000,-2,54424e+000
4,44462e-001,7,55322e-005,5,77800e+000,-1,73471e+000,5,77800e+000,1,73471e+000,5,77800e+000,-2,54424e+000
4,44981e-001,5,06905e-005,5,78475e+000,-1,73471e+000,5,78475e+000,1,65761e+000,5,78475e+000,-2,58279e+000
4,45500e-001,1,99741e-005,5,79150e+000,-1,73471e+000,5,79150e+000,1,61906e+000,5,79150e+000,-2,65989e+000
4,46019e-001,-1,02388e-005,5,79825e+000,-1,77326e+000,5,79825e+000,1,61906e+000,5,79825e+000,-2,73699e+000
4,46538e-001,-3,08843e-005,5,80500e+000,-1,77326e+000,5,80500e+000,1,58051e+000,5,80500e+000,-2,85263e+000
4,47058e-001,-4,56550e-005,5,81175e+000,-1,81181e+000,5,81175e+000,1,58051e+000,5,81175e+000,-2,92973e+000
4,47577e-001,-5,58938e-005,5,81850e+000,-1,88891e+000,5,81850e+000,1,61906e+000,5,81850e+000,-2,96828e+000
4,48096e-001,-6,56291e-005,5,82525e+000,-1,92746e+000,5,82525e+000,1,61906e+000,5,82525e+000,-2,92973e+000
4,48615e-001,-7,21752e-005,5,83200e+000,-1,96600e+000,5,83200e+000,1,58051e+000,5,83200e+000,-2,89118e+000
4,49135e-001,-6,51255e-005,5,83875e+000,-1,96600e+000,5,83875e+000,1,54196e+000,5,83875e+000,-2,81409e+000
4,49654e-001,-4,51514e-005,5,84550e+000,-1,96600e+000,5,84550e+000,1,42632e+000,5,84550e+000,-2,73699e+000
4,50173e-001,-2,24918e-005,5,85225e+000,-1,88891e+000,5,85225e+000,1,34922e+000,5,85225e+000,-2,69844e+000
4,50692e-001,-1,84634e-006,5,85900e+000,-1,88891e+000,5,85900e+000,1,31067e+000,5,85900e+000,-2,73699e+000
4,51212e-001,1,24208e-005,5,86575e+000,-1,85036e+000,5,86575e+000,1,27212e+000,5,86575e+000,-2,85263e+000
4,51731e-001,3,37377e-005,5,87250e+000,-1,85036e+000,5,87250e+000,1,27212e+000,5,87250e+000,-2,89118e+000
4,52250e-001,6,22721e-005,5,87925e+000,-1,85036e+000,5,87925e+000,1,31067e+000,5,87925e+000,-2,92973e+000
4,52769e-001,7,06645e-005,5,88600e+000,-1,92746e+000,5,88600e+000,1,34922e+000,5,88600e+000,-2,89118e+000
4,53288e-001,4,88441e-005,5,89275e+000,-1,92746e+000,5,89275e+000,1,42632e+000,5,89275e+000,-2,92973e+000
4,53808e-001,1,52743e-005,5,89950e+000,-1,92746e+000,5,89950e+000,1,50342e+000,5,89950e+000,-3,04538e+000
4,54327e-001,-9,90310e-006,5,90625e+000,-1,92746e+000,5,90625e+000,1,58051e+000,5,90625e+000,-3,08393e+000
4,54846e-001,-2,29953e-005,5,91300e+000,-1,92746e+000,5,91300e+000,1,61906e+000,5,91300e+000,-3,08393e+000
4,55365e-001,-3,05486e-005,5,91975e+000,-1,92746e+000,5,91975e+000,1,69616e+000,5,91975e+000,-3,04538e+000
4,55885e-001,-3,69268e-005,5,92650e+000,-1,88891e+000,5,92650e+000,1,65761e+000,5,92650e+000,-2,96828e+000
4,56404e-001,-4,63264e-005,5,93325e+000,-1,88891e+000,5,93325e+000,1,58051e+000,5,93325e+000,-2,89118e+000
4,56923e-001,-5,69009e-005,5,94000e+000,-1,88891e+000,5,94000e+000,1,54196e+000,5,94000e+000,-2,77554e+000
4,57442e-001,-6,04257e-005,5,94675e+000,-1,92746e+000,5,94675e+000,1,50342e+000,5,94675e+000,-2,69844e+000
4,57962e-001,-5,48867e-005,5,95350e+000,-1,85036e+000,5,95350e+000,1,42632e+000,5,95350e+000,-2,73699e+000
4,58481e-001,-4,85084e-005,5,96025e+000,-1,81181e+000,5,96025e+000,1,42632e+000,5,96025e+000,-2,73699e+000
4,59000e-001,-4,71656e-005,5,96700e+000,-1,81181e+000,5,96700e+000,1,46487e+000,5,96700e+000,-2,81409e+000
4,59519e-001,-5,01869e-005,5,97375e+000,-1,69616e+000,5,97375e+000,1,46487e+000,5,97375e+000,-2,81409e+000
4,60038e-001,-5,01869e-005,5,98050e+000,-1,65761e+000,5,98050e+000,1,50342e+000,5,98050e+000,-2,81409e+000
4,60558e-001,-4,39765e-005,5,98725e+000,-1,58051e+000,5,98725e+000,1,50342e+000,5,98725e+000,-2,81409e+000
4,61077e-001,-3,74304e-005,5,99400e+000,-1,50342e+000,5,99400e+000,1,58051e+000,5,99400e+000,-2,85263e+000
4,61596e-001,-3,44091e-005,6,00075e+000,-1,42632e+000,6,00075e+000,1,65761e+000,6,00075e+000,-2,89118e+000
4,62115e-001,-3,07164e-005,6,00750e+000,-1,38777e+000,6,00750e+000,1,69616e+000,6,00750e+000,-2,89118e+000
4,62635e-001,-2,19883e-005,6,01425e+000,-1,34922e+000,6,01425e+000,1,73471e+000,6,01425e+000,-2,85263e+000
4,63154e-001,-1,25887e-005,6,02100e+000,-1,31067e+000,6,02100e+000,1,77326e+000,6,02100e+000,-2,77554e+000
4,63673e-001,-5,20333e-006,6,02775e+000,-1,27212e+000,6,02775e+000,1,77326e+000,6,02775e+000,-2,65989e+000
4,64192e-001,1,51064e-006,6,03450e+000,-1,27212e+000,6,03450e+000,1,81181e+000,6,03450e+000,-2,58279e+000
4,64712e-001,5,87472e-006,6,04125e+000,-1,19502e+000,6,04125e+000,1,81181e+000,6,04125e+000,-2,54424e+000
4,65231e-001,7,04967e-006,6,04800e+000,-1,15647e+000,6,04800e+000,1,81181e+000,6,04800e+000,-2,54424e+000
4,65750e-001,5,87472e-006,6,05475e+000,-1,15647e+000,6,05475e+000,1,85036e+000,6,05475e+000,-2,54424e+000
4,66269e-001,3,52483e-006,6,06150e+000,-1,19502e+000,6,06150e+000,1,92746e+000,6,06150e+000,-2,50569e+000
4,66788e-001,3,18914e-006,6,06825e+000,-1,15647e+000,6,06825e+000,1,96600e+000,6,06825e+000,-2,54424e+000
4,67308e-001,5,03548e-006,6,07500e+000,-1,19502e+000,6,07500e+000,2,00455e+000,6,07500e+000,-2,46714e+000
4,67827e-001,6,71397e-006,6,08175e+000,-1,19502e+000,6,08175e+000,2,08165e+000,6,08175e+000,-2,39004e+000
4,68346e-001,6,37827e-006,6,08850e+000,-1,27212e+000,6,08850e+000,2,08165e+000,6,08850e+000,-2,35150e+000
4,68865e-001,5,87472e-006,6,09525e+000,-1,27212e+000,6,09525e+000,2,12020e+000,6,09525e+000,-2,35150e+000
4,69385e-001,6,37827e-006,6,10200e+000,-1,34922e+000,6,10200e+000,2,15875e+000,6,10200e+000,-2,35150e+000
4,69904e-001,1,12459e-005,6,10875e+000,-1,34922e+000,6,10875e+000,2,15875e+000,6,10875e+000,-2,31295e+000
4,70423e-001,1,91348e-005,6,11550e+000,-1,34922e+000,6,11550e+000,2,15875e+000,6,11550e+000,-2,31295e+000
4,70942e-001,2,33310e-005,6,12225e+000,-1,38777e+000,6,12225e+000,2,15875e+000,6,12225e+000,-2,27440e+000
4,71462e-001,2,66880e-005,6,12900e+000,-1,42632e+000,6,12900e+000,2,15875e+000,6,12900e+000,-2,27440e+000
4,71981e-001,3,27306e-005,6,13575e+000,-1,42632e+000,6,13575e+000,2,15875e+000,6,13575e+000,-2,27440e+000
4,72500e-001,4,46479e-005,6,14250e+000,-1,50342e+000,6,14250e+000,2,19730e+000,6,14250e+000,-2,27440e+000
4,73019e-001,7,26787e-005,6,14925e+000,-1,50342e+000,6,14925e+000,2,19730e+000,6,14925e+000,-2,23585e+000
4,73538e-001,1,04234e-004,6,15600e+000,-1,54196e+000,6,15600e+000,2,15875e+000,6,15600e+000,-2,23585e+000
4,74058e-001,1,33272e-004,6,16275e+000,-1,58051e+000,6,16275e+000,2,15875e+000,6,16275e+000,-2,19730e+000
4,74577e-001,1,58953e-004,6,16950e+000,-1,61906e+000,6,16950e+000,2,08165e+000,6,16950e+000,-2,23585e+000
4,75096e-001,1,41161e-004,6,17625e+000,-1,65761e+000,6,17625e+000,2,00455e+000,6,17625e+000,-2,19730e+000
4,75615e-001,7,83856e-005,6,18300e+000,-1,65761e+000,6,18300e+000,1,96600e+000,6,18300e+000,-2,23585e+000
4,76135e-001,9,73526e-006,6,18975e+000,-1,73471e+000,6,18975e+000,1,88891e+000,6,18975e+000,-2,15875e+000
4,76654e-001,-3,69268e-005,6,19650e+000,-1,81181e+000,6,19650e+000,1,77326e+000,6,19650e+000,-2,12020e+000
4,77173e-001,-5,89151e-005,6,20325e+000,-1,92746e+000,6,20325e+000,1,73471e+000,6,20325e+000,-2,15875e+000
4,77692e-001,-6,74754e-005,6,21000e+000,-2,04310e+000,6,21000e+000,1,65761e+000,6,21000e+000,-2,19730e+000
4,78212e-001,-7,04967e-005,6,21675e+000,-2,15875e+000,6,21675e+000,1,61906e+000,6,21675e+000,-2,27440e+000
4,78731e-001,-6,99931e-005,6,22350e+000,-2,27440e+000,6,22350e+000,1,61906e+000,6,22350e+000,-2,46714e+000
4,79250e-001,-6,66362e-005,6,23025e+000,-2,39004e+000,6,23025e+000,1,65761e+000,6,23025e+000,-2,62134e+000
4,79769e-001,-6,46220e-005,6,23700e+000,-2,46714e+000,6,23700e+000,1,69616e+000,6,23700e+000,-2,73699e+000
4,80288e-001,-6,29435e-005,6,24375e+000,-2,54424e+000,6,24375e+000,1,73471e+000,6,24375e+000,-2,73699e+000
4,80808e-001,-5,92508e-005,6,25050e+000,-2,58279e+000,6,25050e+000,1,73471e+000,6,25050e+000,-2,69844e+000
4,81327e-001,-4,95155e-005,6,25725e+000,-2,54424e+000,6,25725e+000,1,69616e+000,6,25725e+000,-2,58279e+000
4,81846e-001,-3,70947e-005,6,26400e+000,-2,50569e+000,6,26400e+000,1,61906e+000,6,26400e+000,-2,42859e+000
4,82365e-001,-2,51774e-005,6,27075e+000,-2,58279e+000,6,27075e+000,1,54196e+000,6,27075e+000,-2,23585e+000
4,82885e-001,-1,32601e-005,6,27750e+000,-2,65989e+000,6,27750e+000,1,42632e+000,6,27750e+000,-2,12020e+000
4,83404e-001,-5,87472e-006,6,28425e+000,-2,77554e+000,6,28425e+000,1,38777e+000,6,28425e+000,-2,08165e+000
4,83923e-001,1,67849e-007,6,29100e+000,-3,00683e+000,6,29100e+000,1,27212e+000,6,29100e+000,-2,08165e+000
4,84442e-001,8,89601e-006,6,29775e+000,-3,19958e+000,6,29775e+000,1,19502e+000,6,29775e+000,-2,19730e+000
4,84962e-001,1,62814e-005,6,30450e+000,-3,39232e+000,6,30450e+000,1,15647e+000,6,30450e+000,-2,23585e+000
4,85481e-001,1,69528e-005,6,31125e+000,-3,54652e+000,6,31125e+000,1,15647e+000,6,31125e+000,-2,27440e+000
4,86000e-001,1,46029e-005,6,31800e+000,-3,66217e+000,6,31800e+000,1,15647e+000,6,31800e+000,-2,39004e+000
4,86519e-001,1,42672e-005,6,32475e+000,-3,66217e+000,6,32475e+000,1,15647e+000,6,32475e+000,-2,54424e+000
4,87038e-001,1,24208e-005,6,33150e+000,-3,62362e+000,6,33150e+000,1,19502e+000,6,33150e+000,-2,50569e+000
4,87558e-001,8,56031e-006,6,33825e+000,-3,54652e+000,6,33825e+000,1,27212e+000,6,33825e+000,-2,39004e+000
4,88077e-001,7,04967e-006,6,34500e+000,-3,39232e+000,6,34500e+000,1,34922e+000,6,34500e+000,-2,35150e+000
4,88596e-001,6,54612e-006,6,35175e+000,-3,27667e+000,6,35175e+000,1,42632e+000,6,35175e+000,-2,31295e+000
4,89115e-001,2,51774e-006,6,35850e+000,-3,19958e+000,6,35850e+000,1,42632e+000,6,35850e+000,-2,31295e+000
4,89635e-001,-7,21752e-006,6,36525e+000,-3,16103e+000,6,36525e+000,1,38777e+000,6,36525e+000,-2,27440e+000
4,90154e-001,-1,77920e-005,6,37200e+000,-3,19958e+000,6,37200e+000,1,38777e+000,6,37200e+000,-2,31295e+000
4,90673e-001,-1,99741e-005,6,37875e+000,-3,27667e+000,6,37875e+000,1,31067e+000,6,37875e+000,-2,31295e+000
4,91192e-001,-1,42672e-005,6,38550e+000,-3,35377e+000,6,38550e+000,1,23357e+000,6,38550e+000,-2,42859e+000
4,91712e-001,-9,56741e-006,6,39225e+000,-3,46942e+000,6,39225e+000,1,19502e+000,6,39225e+000,-2,50569e+000
4,92231e-001,-9,73526e-006,6,39900e+000,-3,50797e+000,6,39900e+000,1,15647e+000,6,39900e+000,-2,54424e+000
4,92750e-001,-1,40993e-005,6,40575e+000,-3,54652e+000,6,40575e+000,1,11792e+000,6,40575e+000,-2,50569e+000
4,93269e-001,-1,62814e-005,6,41250e+000,-3,58507e+000,6,41250e+000,1,11792e+000,6,41250e+000,-2,46714e+000
4,93788e-001,-1,14137e-005,6,41925e+000,-3,54652e+000,6,41925e+000,1,19502e+000,6,41925e+000,-2,39004e+000
4,94308e-001,-6,88182e-006,6,42600e+000,-3,46942e+000,6,42600e+000,1,23357e+000,6,42600e+000,-2,31295e+000
4,94827e-001,-6,04257e-006,6,43275e+000,-3,43087e+000,6,43275e+000,1,31067e+000,6,43275e+000,-2,27440e+000
4,95346e-001,-4,86763e-006,6,43950e+000,-3,39232e+000,6,43950e+000,1,42632e+000,6,43950e+000,-2,23585e+000
4,95865e-001,-1,00710e-006,6,44625e+000,-3,35377e+000,6,44625e+000,1,58051e+000,6,44625e+000,-2,19730e+000
4,96385e-001,2,34989e-006,6,45300e+000,-3,35377e+000,6,45300e+000,1,69616e+000,6,45300e+000,-2,15875e+000
4,96904e-001,3,18914e-006,6,45975e+000,-3,27667e+000,6,45975e+000,1,73471e+000,6,45975e+000,-2,12020e+000
4,97423e-001,1,84634e-006,6,46650e+000,-3,23813e+000,6,46650e+000,1,73471e+000,6,46650e+000,-2,15875e+000
4,97942e-001,2,01419e-006,6,47325e+000,-3,19958e+000,6,47325e+000,1,65761e+000,6,47325e+000,-2,12020e+000
4,98462e-001,3,86053e-006,6,48000e+000,-3,19958e+000,6,48000e+000,1,58051e+000,6,48000e+000,-2,15875e+000
4,98981e-001,-3,35698e-007,6,48675e+000,-3,19958e+000,6,48675e+000,1,46487e+000,6,48675e+000,-2,19730e+000
4,99500e-001,-8,39246e-006,6,49350e+000,-3,23813e+000,6,49350e+000,1,31067e+000,6,49350e+000,-2,19730e+000
5,00019e-001,-1,24208e-005,6,50025e+000,-3,27667e+000,6,50025e+000,1,23357e+000,6,50025e+000,-2,15875e+000
5,00538e-001,-1,05745e-005,6,50700e+000,-3,27667e+000,6,50700e+000,1,19502e+000,6,50700e+000,-2,19730e+000
5,01058e-001,-7,38537e-006,6,51375e+000,-3,27667e+000,6,51375e+000,1,19502e+000,6,51375e+000,-2,27440e+000
5,01577e-001,-1,04067e-005,6,52050e+000,-3,27667e+000,6,52050e+000,1,19502e+000,6,52050e+000,-2,31295e+000
5,02096e-001,-2,01419e-005,6,52725e+000,-3,27667e+000,6,52725e+000,1,19502e+000,6,52725e+000,-2,31295e+000
5,02615e-001,-2,87022e-005,6,53400e+000,-3,23813e+000,6,53400e+000,1,23357e+000,6,53400e+000,-2,27440e+000
5,03135e-001,-3,23949e-005,6,54075e+000,-3,23813e+000,6,54075e+000,1,23357e+000,6,54075e+000,-2,23585e+000
5,03654e-001,-3,35698e-005,6,54750e+000,-3,19958e+000,6,54750e+000,1,23357e+000,6,54750e+000,-2,19730e+000
5,04173e-001,-3,54162e-005,6,55425e+000,-3,23813e+000,6,55425e+000,1,23357e+000,6,55425e+000,-2,19730e+000
5,04692e-001,-3,77661e-005,6,56100e+000,-3,23813e+000,6,56100e+000,1,19502e+000,6,56100e+000,-2,15875e+000
5,05212e-001,-4,90120e-005,6,56775e+000,-3,23813e+000,6,56775e+000,1,15647e+000,6,56775e+000,-2,12020e+000
5,05731e-001,-8,25818e-005,6,57450e+000,-3,23813e+000,6,57450e+000,1,11792e+000,6,57450e+000,-2,04310e+000
5,06250e-001,-1,03899e-004,6,58125e+000,-3,23813e+000,6,58125e+000,1,11792e+000,6,58125e+000,-2,00455e+000
5,06769e-001,-8,10712e-005,6,58800e+000,-3,23813e+000,6,58800e+000,1,11792e+000,6,58800e+000,-2,00455e+000
5,07288e-001,-3,65911e-005,6,59475e+000,-3,23813e+000,6,59475e+000,1,19502e+000,6,59475e+000,-2,04310e+000
5,07808e-001,-8,39246e-007,6,60150e+000,-3,27667e+000,6,60150e+000,1,23357e+000,6,60150e+000,-2,00455e+000
5,08327e-001,1,49386e-005,6,60825e+000,-3,27667e+000,6,60825e+000,1,23357e+000,6,60825e+000,-1,96600e+000
5,08846e-001,1,44350e-005,6,61500e+000,-3,31522e+000,6,61500e+000,1,23357e+000,6,61500e+000,-1,92746e+000
5,09365e-001,1,32601e-005,6,62175e+000,-3,35377e+000,6,62175e+000,1,15647e+000,6,62175e+000,-1,85036e+000
5,09885e-001,1,72885e-005,6,62850e+000,-3,35377e+000,6,62850e+000,1,11792e+000,6,62850e+000,-1,81181e+000
5,10404e-001,1,99741e-005,6,63525e+000,-3,35377e+000,6,63525e+000,1,07938e+000,6,63525e+000,-1,77326e+000
5,10923e-001,2,29953e-005,6,64200e+000,-3,31522e+000,6,64200e+000,1,04083e+000,6,64200e+000,-1,77326e+000
5,11442e-001,3,87732e-005,6,64875e+000,-3,27667e+000,6,64875e+000,1,04083e+000,6,64875e+000,-1,73471e+000
5,11962e-001,7,10002e-005,6,65550e+000,-3,23813e+000,6,65550e+000,1,04083e+000,6,65550e+000,-1,73471e+000
5,12481e-001,1,06584e-004,6,66225e+000,-3,19958e+000,6,66225e+000,1,00228e+000,6,66225e+000,-1,69616e+000
5,13000e-001,1,31426e-004,6,66900e+000,-3,19958e+000,6,66900e+000,1,00228e+000,6,66900e+000,-1,69616e+000
5,13519e-001,1,41497e-004,6,67575e+000,-3,16103e+000,6,67575e+000,1,00228e+000,6,67575e+000,-1,61906e+000
5,14038e-001,1,37133e-004,6,68250e+000,-3,16103e+000,6,68250e+000,1,00228e+000,6,68250e+000,-1,54196e+000
5,14558e-001,1,19173e-004,6,68925e+000,-3,16103e+000,6,68925e+000,1,04083e+000,6,68925e+000,-1,50342e+000
5,15077e-001,9,48348e-005,6,69600e+000,-3,19958e+000,6,69600e+000,1,11792e+000,6,69600e+000,-1,46487e+000
5,15596e-001,6,94896e-005,6,70275e+000,-3,19958e+000,6,70275e+000,1,15647e+000,6,70275e+000,-1,42632e+000
5,16115e-001,4,28016e-005,6,70950e+000,-3,19958e+000,6,70950e+000,1,23357e+000,6,70950e+000,-1,42632e+000
5,16635e-001,1,99741e-005,6,71625e+000,-3,16103e+000,6,71625e+000,1,23357e+000,6,71625e+000,-1,34922e+000
5,17154e-001,5,87472e-006,6,72300e+000,-3,12248e+000,6,72300e+000,1,23357e+000,6,72300e+000,-1,31067e+000
5,17673e-001,-2,85344e-006,6,72975e+000,-3,08393e+000,6,72975e+000,1,23357e+000,6,72975e+000,-1,27212e+000
5,18192e-001,-1,00710e-005,6,73650e+000,-3,04538e+000,6,73650e+000,1,23357e+000,6,73650e+000,-1,19502e+000
5,18712e-001,-1,86313e-005,6,74325e+000,-3,00683e+000,6,74325e+000,1,19502e+000,6,74325e+000,-1,15647e+000
5,19231e-001,-2,92058e-005,6,75000e+000,-3,00683e+000,6,75000e+000,1,19502e+000,6,75000e+000,-1,15647e+000
5,19750e-001,-3,91089e-005,6,75675e+000,-3,04538e+000,6,75675e+000,1,19502e+000,6,75675e+000,-1,04083e+000
5,20269e-001,-4,81727e-005,6,76350e+000,-3,04538e+000,6,76350e+000,1,15647e+000,6,76350e+000,-1,00228e+000
5,20788e-001,-5,72366e-005,6,77025e+000,-3,08393e+000,6,77025e+000,1,19502e+000,6,77025e+000,-9,25179e-001
5,21308e-001,-6,39506e-005,6,77700e+000,-3,08393e+000,6,77700e+000,1,23357e+000,6,77700e+000,-8,86629e-001
5,21827e-001,-6,52934e-005,6,78375e+000,-3,16103e+000,6,78375e+000,1,27212e+000,6,78375e+000,-8,48080e-001
5,22346e-001,-6,22721e-005,6,79050e+000,-3,19958e+000,6,79050e+000,1,34922e+000,6,79050e+000,-8,09531e-001
5,22865e-001,-5,82437e-005,6,79725e+000,-3,27667e+000,6,79725e+000,1,38777e+000,6,79725e+000,-7,32433e-001
5,23385e-001,-5,43832e-005,6,80400e+000,-3,27667e+000,6,80400e+000,1,42632e+000,6,80400e+000,-7,32433e-001
5,23904e-001,-4,98512e-005,6,81075e+000,-3,27667e+000,6,81075e+000,1,46487e+000,6,81075e+000,-6,93884e-001
5,24423e-001,-4,31373e-005,6,81750e+000,-3,19958e+000,6,81750e+000,1,50342e+000,6,81750e+000,-6,93884e-001
5,24942e-001,-3,86053e-005,6,82425e+000,-3,04538e+000,6,82425e+000,1,54196e+000,6,82425e+000,-7,32433e-001
5,25462e-001,-3,70947e-005,6,83100e+000,-2,96828e+000,6,83100e+000,1,50342e+000,6,83100e+000,-6,93884e-001
5,25981e-001,-3,60876e-005,6,83775e+000,-2,96828e+000,6,83775e+000,1,46487e+000,6,83775e+000,-6,93884e-001
5,26500e-001,-3,52483e-005,6,84450e+000,-2,96828e+000,6,84450e+000,1,38777e+000,6,84450e+000,-6,93884e-001
5,27019e-001,-3,42412e-005,6,85125e+000,-2,92973e+000,6,85125e+000,1,31067e+000,6,85125e+000,-6,55335e-001
5,27538e-001,-3,07164e-005,6,85800e+000,-2,96828e+000,6,85800e+000,1,23357e+000,6,85800e+000,-6,93884e-001
5,28058e-001,-2,61845e-005,6,86475e+000,-2,96828e+000,6,86475e+000,1,15647e+000,6,86475e+000,-6,93884e-001
5,28577e-001,-2,34989e-005,6,87150e+000,-3,00683e+000,6,87150e+000,1,15647e+000,6,87150e+000,-6,93884e-001
5,29096e-001,-2,26596e-005,6,87825e+000,-2,96828e+000,6,87825e+000,1,11792e+000,6,87825e+000,-6,55335e-001
5,29615e-001,-2,26596e-005,6,88500e+000,-2,96828e+000,6,88500e+000,1,07938e+000,6,88500e+000,-6,93884e-001
5,30135e-001,-2,16526e-005,6,89175e+000,-2,92973e+000,6,89175e+000,1,04083e+000,6,89175e+000,-6,93884e-001
5,30654e-001,-1,56100e-005,6,89850e+000,-2,89118e+000,6,89850e+000,1,04083e+000,6,89850e+000,-6,93884e-001
5,31173e-001,-1,02388e-005,6,90525e+000,-2,85263e+000,6,90525e+000,1,04083e+000,6,90525e+000,-7,32433e-001
5,31692e-001,-7,04967e-006,6,91200e+000,-2,77554e+000,6,91200e+000,1,04083e+000,6,91200e+000,-6,93884e-001
5,32212e-001,-5,37118e-006,6,91875e+000,-2,73699e+000,6,91875e+000,1,04083e+000,6,91875e+000,-6,16786e-001
5,32731e-001,-4,02838e-006,6,92550e+000,-2,69844e+000,6,92550e+000,1,04083e+000,6,92550e+000,-5,78237e-001
5,33250e-001,-2,18204e-006,6,93225e+000,-2,58279e+000,6,93225e+000,1,07938e+000,6,93225e+000,-5,01138e-001
5,33769e-001,-3,35698e-007,6,93900e+000,-2,50569e+000,6,93900e+000,1,11792e+000,6,93900e+000,-4,62589e-001
5,34288e-001,1,00710e-006,6,94575e+000,-2,42859e+000,6,94575e+000,1,19502e+000,6,94575e+000,-4,24040e-001
5,34808e-001,1,51064e-006,6,95250e+000,-2,39004e+000,6,95250e+000,1,23357e+000,6,95250e+000,-3,85491e-001
5,35327e-001,6,71397e-007,6,95925e+000,-2,31295e+000,6,95925e+000,1,31067e+000,6,95925e+000,-3,46942e-001
5,35846e-001,1,51064e-006,6,96600e+000,-2,27440e+000,6,96600e+000,1,34922e+000,6,96600e+000,-3,46942e-001
5,36365e-001,3,86053e-006,6,97275e+000,-2,19730e+000,6,97275e+000,1,34922e+000,6,97275e+000,-3,85491e-001
5,36885e-001,4,86763e-006,6,97950e+000,-2,15875e+000,6,97950e+000,1,38777e+000,6,97950e+000,-3,85491e-001
5,37404e-001,2,85344e-006,6,98625e+000,-2,08165e+000,6,98625e+000,1,42632e+000,6,98625e+000,-4,24040e-001
5,37923e-001,0,00000e+000,6,99300e+000,-2,04310e+000,6,99300e+000,1,38777e+000,6,99300e+000,-4,62589e-001
5,38442e-001,-2,18204e-006,6,99975e+000,-1,96600e+000,6,99975e+000,1,42632e+000,6,99975e+000,-5,01138e-001
5,38962e-001,-2,85344e-006,7,00650e+000,-1,92746e+000,7,00650e+000,1,42632e+000,7,00650e+000,-5,39688e-001
5,39481e-001,-2,68559e-006,7,01325e+000,-1,85036e+000,7,01325e+000,1,42632e+000,7,01325e+000,-5,78237e-001
5,40000e-001,-3,18914e-006,7,02000e+000,-1,81181e+000,7,02000e+000,1,42632e+000,7,02000e+000,-6,16786e-001
5,40519e-001,-3,35698e-006,7,02675e+000,-1,73471e+000,7,02675e+000,1,42632e+000,7,02675e+000,-6,55335e-001
5,41038e-001,-2,68559e-006,7,03350e+000,-1,69616e+000,7,03350e+000,1,42632e+000,7,03350e+000,-6,55335e-001
5,41558e-001,-1,17494e-006,7,04025e+000,-1,65761e+000,7,04025e+000,1,38777e+000,7,04025e+000,-6,55335e-001
5,42077e-001,1,67849e-006,7,04700e+000,-1,58051e+000,7,04700e+000,1,38777e+000,7,04700e+000,-6,93884e-001
5,42596e-001,5,03548e-006,7,05375e+000,-1,58051e+000,7,05375e+000,1,34922e+000,7,05375e+000,-6,93884e-001
5,43115e-001,7,38537e-006,7,06050e+000,-1,50342e+000,7,06050e+000,1,27212e+000,7,06050e+000,-6,93884e-001
5,43635e-001,9,39956e-006,7,06725e+000,-1,50342e+000,7,06725e+000,1,27212e+000,7,06725e+000,-6,93884e-001
5,44154e-001,1,12459e-005,7,07400e+000,-1,46487e+000,7,07400e+000,1,23357e+000,7,07400e+000,-7,32433e-001
5,44673e-001,1,25887e-005,7,08075e+000,-1,42632e+000,7,08075e+000,1,23357e+000,7,08075e+000,-7,32433e-001
5,45192e-001,1,25887e-005,7,08750e+000,-1,38777e+000,7,08750e+000,1,23357e+000,7,08750e+000,-7,70982e-001
5,45712e-001,1,02388e-005,7,09425e+000,-1,34922e+000,7,09425e+000,1,23357e+000,7,09425e+000,-8,09531e-001
5,46231e-001,8,39246e-006,7,10100e+000,-1,34922e+000,7,10100e+000,1,19502e+000,7,10100e+000,-8,48080e-001
5,46750e-001,7,88891e-006,7,10775e+000,-1,34922e+000,7,10775e+000,1,15647e+000,7,10775e+000,-8,86629e-001
5,47269e-001,7,72107e-006,7,11450e+000,-1,34922e+000,7,11450e+000,1,07938e+000,7,11450e+000,-9,25179e-001
5,47788e-001,6,88182e-006,7,12125e+000,-1,38777e+000,7,12125e+000,1,07938e+000,7,12125e+000,-9,25179e-001
5,48308e-001,2,34989e-006,7,12800e+000,-1,42632e+000,7,12800e+000,1,07938e+000,7,12800e+000,-9,63728e-001
5,48827e-001,-6,37827e-006,7,13475e+000,-1,46487e+000,7,13475e+000,1,07938e+000,7,13475e+000,-9,63728e-001
5,49346e-001,-1,09102e-005,7,14150e+000,-1,50342e+000,7,14150e+000,1,11792e+000,7,14150e+000,-1,00228e+000
5,49865e-001,-1,00710e-005,7,14825e+000,-1,58051e+000,7,14825e+000,1,15647e+000,7,14825e+000,-1,00228e+000
5,50385e-001,-8,56031e-006,7,15500e+000,-1,65761e+000,7,15500e+000,1,19502e+000,7,15500e+000,-1,04083e+000
5,50904e-001,-9,23171e-006,7,16175e+000,-1,73471e+000,7,16175e+000,1,27212e+000,7,16175e+000,-1,00228e+000
5,51423e-001,-8,89601e-006,7,16850e+000,-1,77326e+000,7,16850e+000,1,34922e+000,7,16850e+000,-1,00228e+000
5,51942e-001,-5,53903e-006,7,17525e+000,-1,81181e+000,7,17525e+000,1,42632e+000,7,17525e+000,-9,63728e-001
5,52462e-001,-2,18204e-006,7,18200e+000,-1,88891e+000,7,18200e+000,1,50342e+000,7,18200e+000,-1,04083e+000
5,52981e-001,1,00710e-006,7,18875e+000,-1,92746e+000,7,18875e+000,1,58051e+000,7,18875e+000,-1,04083e+000
5,53500e-001,7,38537e-006,7,19550e+000,-1,96600e+000,7,19550e+000,1,61906e+000,7,19550e+000,-1,04083e+000
5,54019e-001,1,72885e-005,7,20225e+000,-2,00455e+000,7,20225e+000,1,65761e+000,7,20225e+000,-1,07938e+000
5,54538e-001,2,73594e-005,7,20900e+000,-2,08165e+000,7,20900e+000,1,69616e+000,7,20900e+000,-1,07938e+000
5,55058e-001,3,49126e-005,7,21575e+000,-2,15875e+000,7,21575e+000,1,69616e+000,7,21575e+000,-1,11792e+000
5,55577e-001,4,09552e-005,7,22250e+000,-2,27440e+000,7,22250e+000,1,65761e+000,7,22250e+000,-1,15647e+000
5,56096e-001,4,33051e-005,7,22925e+000,-2,35150e+000,7,22925e+000,1,65761e+000,7,22925e+000,-1,15647e+000
5,56615e-001,4,26337e-005,7,23600e+000,-2,42859e+000,7,23600e+000,1,61906e+000,7,23600e+000,-1,19502e+000
5,57135e-001,3,87732e-005,7,24275e+000,-2,54424e+000,7,24275e+000,1,61906e+000,7,24275e+000,-1,19502e+000
5,57654e-001,2,87022e-005,7,24950e+000,-2,62134e+000,7,24950e+000,1,58051e+000,7,24950e+000,-1,23357e+000
5,58173e-001,1,42672e-005,7,25625e+000,-2,69844e+000,7,25625e+000,1,58051e+000,7,25625e+000,-1,19502e+000
5,58692e-001,4,36408e-006,7,26300e+000,-2,73699e+000,7,26300e+000,1,58051e+000,7,26300e+000,-1,23357e+000
5,59212e-001,-8,39246e-007,7,26975e+000,-2,77554e+000,7,26975e+000,1,58051e+000,7,26975e+000,-1,19502e+000
5,59731e-001,-5,20333e-006,7,27650e+000,-2,81409e+000,7,27650e+000,1,61906e+000,7,27650e+000,-1,23357e+000
5,60250e-001,-9,56741e-006,7,28325e+000,-2,85263e+000,7,28325e+000,1,61906e+000,7,28325e+000,-1,23357e+000
5,60769e-001,-1,56100e-005,7,29000e+000,-2,85263e+000,7,29000e+000,1,58051e+000,7,29000e+000,-1,23357e+000
5,61288e-001,-2,36667e-005,7,29675e+000,-2,85263e+000,7,29675e+000,1,61906e+000,7,29675e+000,-1,23357e+000
5,61808e-001,-3,25628e-005,7,30350e+000,-2,85263e+000,7,30350e+000,1,61906e+000,7,30350e+000,-1,23357e+000
5,62327e-001,-6,19364e-005,7,31025e+000,-2,81409e+000,7,31025e+000,1,61906e+000,7,31025e+000,-1,27212e+000
5,62846e-001,-1,20516e-004,7,31700e+000,-2,77554e+000,7,31700e+000,1,61906e+000,7,31700e+000,-1,31067e+000
5,63365e-001,-1,65331e-004,7,32375e+000,-2,77554e+000,7,32375e+000,1,61906e+000,7,32375e+000,-1,31067e+000
5,63885e-001,-1,50729e-004,7,33050e+000,-2,73699e+000,7,33050e+000,1,61906e+000,7,33050e+000,-1,34922e+000
5,64404e-001,-8,09033e-005,7,33725e+000,-2,73699e+000,7,33725e+000,1,61906e+000,7,33725e+000,-1,34922e+000
5,64923e-001,-2,68559e-006,7,34400e+000,-2,73699e+000,7,34400e+000,1,65761e+000,7,34400e+000,-1,34922e+000
5,65442e-001,5,05226e-005,7,35075e+000,-2,69844e+000,7,35075e+000,1,65761e+000,7,35075e+000,-1,34922e+000
5,65962e-001,6,93217e-005,7,35750e+000,-2,65989e+000,7,35750e+000,1,65761e+000,7,35750e+000,-1,34922e+000
5,66481e-001,5,89151e-005,7,36425e+000,-2,62134e+000,7,36425e+000,1,61906e+000,7,36425e+000,-1,34922e+000
5,67000e-001,3,23949e-005,7,37100e+000,-2,58279e+000,7,37100e+000,1,61906e+000,7,37100e+000,-1,34922e+000
5,67519e-001,6,88182e-006,7,37775e+000,-2,58279e+000,7,37775e+000,1,58051e+000,7,37775e+000,-1,31067e+000
5,68038e-001,-4,53193e-006,7,38450e+000,-2,54424e+000,7,38450e+000,1,54196e+000,7,38450e+000,-1,31067e+000
5,68558e-001,5,03548e-007,7,39125e+000,-2,54424e+000,7,39125e+000,1,50342e+000,7,39125e+000,-1,31067e+000
5,69077e-001,1,64492e-005,7,39800e+000,-2,54424e+000,7,39800e+000,1,46487e+000,7,39800e+000,-1,27212e+000
5,69596e-001,4,07874e-005,7,40475e+000,-2,54424e+000,7,40475e+000,1,42632e+000,7,40475e+000,-1,27212e+000
5,70115e-001,6,96574e-005,7,41150e+000,-2,54424e+000,7,41150e+000,1,38777e+000,7,41150e+000,-1,31067e+000
5,70635e-001,9,43313e-005,7,41825e+000,-2,58279e+000,7,41825e+000,1,34922e+000,7,41825e+000,-1,27212e+000
5,71154e-001,1,08934e-004,7,42500e+000,-2,58279e+000,7,42500e+000,1,31067e+000,7,42500e+000,-1,27212e+000
