0.00000e+000 0.00000e+000
5.00000e-004 0.00000e+000
1.00000e-003 0.00000e+000
1.50000e-003 0.00000e+000
2.00000e-003 0.00000e+000
2.50000e-003 0.00000e+000
3.00000e-003 0.00000e+000
3.50000e-003 0.00000e+000
4.00000e-003 0.00000e+000
4.50000e-003 0.00000e+000
5.00000e-003 0.00000e+000
5.50000e-003 0.00000e+000
6.00000e-003 0.00000e+000
6.50000e-003 0.00000e+000
7.00000e-003 0.00000e+000
7.50000e-003 0.00000e+000
8.00000e-003 0.00000e+000
8.50000e-003 0.00000e+000
9.00000e-003 0.00000e+000
9.50000e-003 0.00000e+000
1.00000e-002 0.00000e+000
1.05000e-002 0.00000e+000
1.10000e-002 0.00000e+000
1.15000e-002 0.00000e+000
1.20000e-002 0.00000e+000
1.25000e-002 0.00000e+000
1.30000e-002 0.00000e+000
1.35000e-002 0.00000e+000
1.40000e-002 0.00000e+000
1.45000e-002 0.00000e+000
1.50000e-002 0.00000e+000
1.55000e-002 0.00000e+000
1.60000e-002 0.00000e+000
1.65000e-002 0.00000e+000
1.70000e-002 0.00000e+000
1.75000e-002 0.00000e+000
1.80000e-002 0.00000e+000
1.85000e-002 0.00000e+000
1.90000e-002 0.00000e+000
1.95000e-002 0.00000e+000
2.00000e-002 0.00000e+000
2.05000e-002 0.00000e+000
2.10000e-002 0.00000e+000
2.15000e-002 0.00000e+000
2.20000e-002 0.00000e+000
2.25000e-002 0.00000e+000
2.30000e-002 0.00000e+000
2.35000e-002 0.00000e+000
2.40000e-002 0.00000e+000
2.45000e-002 0.00000e+000
2.50000e-002 0.00000e+000
2.55000e-002 0.00000e+000
2.60000e-002 0.00000e+000
2.65000e-002 0.00000e+000
2.70000e-002 0.00000e+000
2.75000e-002 0.00000e+000
2.80000e-002 0.00000e+000
2.85000e-002 0.00000e+000
2.90000e-002 0.00000e+000
2.95000e-002 0.00000e+000
3.00000e-002 0.00000e+000
3.05000e-002 0.00000e+000
3.10000e-002 0.00000e+000
3.15000e-002 0.00000e+000
3.20000e-002 0.00000e+000
3.25000e-002 0.00000e+000
3.30000e-002 0.00000e+000
3.35000e-002 0.00000e+000
3.40000e-002 0.00000e+000
3.45000e-002 0.00000e+000
3.50000e-002 0.00000e+000
3.55000e-002 0.00000e+000
3.60000e-002 0.00000e+000
3.65000e-002 0.00000e+000
3.70000e-002 0.00000e+000
3.75000e-002 0.00000e+000
3.80000e-002 0.00000e+000
3.85000e-002 0.00000e+000
3.90000e-002 0.00000e+000
3.95000e-002 0.00000e+000
4.00000e-002 0.00000e+000
4.05000e-002 0.00000e+000
4.10000e-002 0.00000e+000
4.15000e-002 0.00000e+000
4.20000e-002 0.00000e+000
4.25000e-002 0.00000e+000
4.30000e-002 0.00000e+000
4.35000e-002 0.00000e+000
4.40000e-002 0.00000e+000
4.45000e-002 0.00000e+000
4.50000e-002 0.00000e+000
4.55000e-002 0.00000e+000
4.60000e-002 0.00000e+000
4.65000e-002 0.00000e+000
4.70000e-002 0.00000e+000
4.75000e-002 0.00000e+000
4.80000e-002 0.00000e+000
4.85000e-002 0.00000e+000
4.90000e-002 0.00000e+000
4.95000e-002 0.00000e+000
5.00000e-002 0.00000e+000
5.05000e-002 0.00000e+000
5.10000e-002 0.00000e+000
5.15000e-002 0.00000e+000
5.20000e-002 0.00000e+000
5.25000e-002 0.00000e+000
5.30000e-002 0.00000e+000
5.35000e-002 0.00000e+000
5.40000e-002 1.12247e-016
5.45000e-002 2.85451e-007
5.50000e-002 8.94140e-006
5.55000e-002 1.25062e-005
5.60000e-002 9.60256e-006
5.65000e-002 1.13659e-005
5.70000e-002 9.80297e-006
5.75000e-002 9.91554e-006
5.80000e-002 9.91626e-006
5.85000e-002 1.03834e-005
5.90000e-002 1.21166e-005
5.95000e-002 1.49152e-005
6.00000e-002 1.77373e-005
6.05000e-002 1.72694e-005
6.10000e-002 1.41962e-005
6.15000e-002 1.08091e-005
6.20000e-002 8.49941e-006
6.25000e-002 9.20326e-006
6.30000e-002 1.17159e-005
6.35000e-002 1.40344e-005
6.40000e-002 1.44702e-005
6.45000e-002 1.40119e-005
6.50000e-002 1.20137e-005
6.55000e-002 1.07702e-005
6.60000e-002 1.05710e-005
6.65000e-002 1.01912e-005
6.70000e-002 8.96972e-006
6.75000e-002 8.16615e-006
6.80000e-002 7.67949e-006
6.85000e-002 7.49593e-006
6.90000e-002 8.37975e-006
6.95000e-002 8.72403e-006
7.00000e-002 8.03946e-006
7.05000e-002 7.59786e-006
7.10000e-002 8.21643e-006
7.15000e-002 9.80784e-006
7.20000e-002 1.11104e-005
7.25000e-002 1.13324e-005
7.30000e-002 9.48650e-006
7.35000e-002 8.52958e-006
7.40000e-002 1.05065e-005
7.45000e-002 1.42794e-005
7.50000e-002 1.46477e-005
7.55000e-002 1.25677e-005
7.60000e-002 1.18428e-005
7.65000e-002 1.12791e-005
7.70000e-002 1.00371e-005
7.75000e-002 1.04156e-005
7.80000e-002 1.18862e-005
7.85000e-002 1.32198e-005
7.90000e-002 1.33328e-005
7.95000e-002 1.35400e-005
8.00000e-002 1.29018e-005
8.05000e-002 1.05544e-005
8.10000e-002 7.33307e-006
8.15000e-002 4.41917e-006
8.20000e-002 4.78533e-006
8.25000e-002 6.95232e-006
8.30000e-002 8.30728e-006
8.35000e-002 9.66229e-006
8.40000e-002 1.00759e-005
8.45000e-002 8.65739e-006
8.50000e-002 6.94666e-006
8.55000e-002 7.48993e-006
8.60000e-002 9.15149e-006
8.65000e-002 9.59358e-006
8.70000e-002 9.18832e-006
8.75000e-002 9.89917e-006
8.80000e-002 1.03228e-005
8.85000e-002 1.00922e-005
8.90000e-002 9.97845e-006
8.95000e-002 1.06916e-005
9.00000e-002 1.07657e-005
9.05000e-002 1.23911e-005
9.10000e-002 1.42259e-005
9.15000e-002 1.44109e-005
9.20000e-002 1.40117e-005
9.25000e-002 1.54126e-005
9.30000e-002 1.66802e-005
9.35000e-002 1.57718e-005
9.40000e-002 1.39823e-005
9.45000e-002 1.35358e-005
9.50000e-002 1.38216e-005
9.55000e-002 1.39017e-005
9.60000e-002 1.29538e-005
9.65000e-002 1.13975e-005
9.70000e-002 1.06925e-005
9.75000e-002 1.07226e-005
9.80000e-002 1.08221e-005
9.85000e-002 9.64488e-006
9.90000e-002 8.19260e-006
9.95000e-002 7.88450e-006
1.00000e-001 8.62538e-006
1.00500e-001 9.10438e-006
1.01000e-001 8.97459e-006
1.01500e-001 8.22339e-006
1.02000e-001 8.68138e-006
1.02500e-001 8.68129e-006
1.03000e-001 8.87464e-006
1.03500e-001 1.09082e-005
1.04000e-001 1.15462e-005
1.04500e-001 1.02461e-005
1.05000e-001 9.10067e-006
1.05500e-001 9.28977e-006
1.06000e-001 1.00051e-005
1.06500e-001 1.06069e-005
1.07000e-001 1.06900e-005
1.07500e-001 1.18346e-005
1.08000e-001 1.26831e-005
1.08500e-001 1.20274e-005
1.09000e-001 1.15849e-005
1.09500e-001 1.18747e-005
1.10000e-001 1.25906e-005
1.10500e-001 1.26703e-005
1.11000e-001 1.14567e-005
1.11500e-001 9.98514e-006
1.12000e-001 8.80405e-006
1.12500e-001 8.67466e-006
1.13000e-001 9.30373e-006
1.13500e-001 9.46077e-006
1.14000e-001 1.09116e-005
1.14500e-001 1.31485e-005
1.15000e-001 1.36991e-005
1.15500e-001 1.34318e-005
1.16000e-001 1.31402e-005
1.16500e-001 1.28473e-005
1.17000e-001 1.18748e-005
1.17500e-001 1.16979e-005
1.18000e-001 1.02922e-005
1.18500e-001 9.59356e-006
1.19000e-001 1.11345e-005
1.19500e-001 1.22643e-005
1.20000e-001 1.08558e-005
1.20500e-001 9.39606e-006
1.21000e-001 1.03589e-005
1.21500e-001 1.19210e-005
1.22000e-001 1.20259e-005
1.22500e-001 1.13117e-005
1.23000e-001 1.00604e-005
1.23500e-001 9.64472e-006
1.24000e-001 1.01916e-005
1.24500e-001 1.06806e-005
1.25000e-001 1.27693e-005
1.25500e-001 1.49450e-005
1.26000e-001 1.56058e-005
1.26500e-001 1.54420e-005
1.27000e-001 1.50358e-005
1.27500e-001 1.41859e-005
1.28000e-001 1.16661e-005
1.28500e-001 8.92225e-006
1.29000e-001 7.03908e-006
1.29500e-001 4.31440e-006
1.30000e-001 3.56173e-006
1.30500e-001 5.13963e-006
1.31000e-001 6.22868e-006
1.31500e-001 7.74979e-006
1.32000e-001 9.19172e-006
1.32500e-001 8.56824e-006
1.33000e-001 6.76912e-006
1.33500e-001 4.38515e-006
1.34000e-001 2.75739e-006
1.34500e-001 2.18734e-006
1.35000e-001 2.14586e-006
1.35500e-001 1.92605e-006
1.36000e-001 1.80198e-006
1.36500e-001 2.41282e-006
1.37000e-001 3.72537e-006
1.37500e-001 5.95575e-006
1.38000e-001 7.98405e-006
1.38500e-001 8.00406e-006
1.39000e-001 6.78862e-006
1.39500e-001 6.90783e-006
1.40000e-001 8.28640e-006
1.40500e-001 8.39304e-006
1.41000e-001 7.85372e-006
1.41500e-001 8.89656e-006
1.42000e-001 9.68798e-006
1.42500e-001 1.00644e-005
1.43000e-001 1.06237e-005
1.43500e-001 1.09575e-005
1.44000e-001 9.83819e-006
1.44500e-001 9.98719e-006
1.45000e-001 1.06215e-005
1.45500e-001 1.01616e-005
1.46000e-001 9.77554e-006
1.46500e-001 8.78008e-006
1.47000e-001 7.46694e-006
1.47500e-001 6.87420e-006
1.48000e-001 7.06834e-006
1.48500e-001 7.84919e-006
1.49000e-001 8.27866e-006
1.49500e-001 8.24027e-006
1.50000e-001 8.34824e-006
1.50500e-001 7.45874e-006
1.51000e-001 5.10025e-006
1.51500e-001 3.32674e-006
1.52000e-001 3.09542e-006
1.52500e-001 3.86613e-006
1.53000e-001 5.01957e-006
1.53500e-001 5.66134e-006
1.54000e-001 6.12374e-006
1.54500e-001 5.76429e-006
1.55000e-001 6.06271e-006
1.55500e-001 6.81101e-006
1.56000e-001 7.97044e-006
1.56500e-001 8.78889e-006
1.57000e-001 1.01014e-005
1.57500e-001 1.08883e-005
1.58000e-001 1.25240e-005
1.58500e-001 1.55804e-005
1.59000e-001 1.74156e-005
1.59500e-001 1.62665e-005
1.60000e-001 1.48748e-005
1.60500e-001 1.54926e-005
1.61000e-001 1.65719e-005
1.61500e-001 1.76130e-005
1.62000e-001 1.78617e-005
1.62500e-001 1.64832e-005
1.63000e-001 1.49001e-005
1.63500e-001 1.43003e-005
1.64000e-001 1.46379e-005
1.64500e-001 1.50070e-005
1.65000e-001 1.47175e-005
1.65500e-001 1.37706e-005
1.66000e-001 1.26347e-005
1.66500e-001 1.27113e-005
1.67000e-001 1.28551e-005
1.67500e-001 1.19069e-005
1.68000e-001 1.08962e-005
1.68500e-001 1.16113e-005
1.69000e-001 1.26808e-005
1.69500e-001 1.12983e-005
1.70000e-001 1.03466e-005
1.70500e-001 1.06108e-005
1.71000e-001 1.06050e-005
1.71500e-001 1.09925e-005
1.72000e-001 1.12370e-005
1.72500e-001 1.09796e-005
1.73000e-001 1.21088e-005
1.73500e-001 1.36178e-005
1.74000e-001 1.44867e-005
1.74500e-001 1.44531e-005
1.75000e-001 1.36398e-005
1.75500e-001 1.30821e-005
1.76000e-001 1.25314e-005
1.76500e-001 1.19524e-005
1.77000e-001 1.16516e-005
1.77500e-001 1.13173e-005
1.78000e-001 1.07638e-005
1.78500e-001 9.84435e-006
1.79000e-001 9.21679e-006
1.79500e-001 9.05776e-006
1.80000e-001 9.31047e-006
1.80500e-001 1.12088e-005
1.81000e-001 1.32236e-005
1.81500e-001 1.40775e-005
1.82000e-001 1.46391e-005
1.82500e-001 1.34121e-005
1.83000e-001 1.10812e-005
1.83500e-001 1.06445e-005
1.84000e-001 1.19181e-005
1.84500e-001 1.22414e-005
1.85000e-001 1.19366e-005
1.85500e-001 1.26653e-005
1.86000e-001 1.25270e-005
1.86500e-001 1.18542e-005
1.87000e-001 1.18151e-005
1.87500e-001 1.05731e-005
1.88000e-001 9.84454e-006
1.88500e-001 1.03497e-005
1.89000e-001 1.23867e-005
1.89500e-001 1.34469e-005
1.90000e-001 1.25367e-005
1.90500e-001 1.19632e-005
1.91000e-001 1.20347e-005
1.91500e-001 1.23762e-005
1.92000e-001 1.26968e-005
1.92500e-001 1.38836e-005
1.93000e-001 1.62384e-005
1.93500e-001 1.71433e-005
1.94000e-001 1.59839e-005
1.94500e-001 1.50395e-005
1.95000e-001 1.31940e-005
1.95500e-001 1.17669e-005
1.96000e-001 1.25774e-005
1.96500e-001 1.45615e-005
1.97000e-001 1.34130e-005
1.97500e-001 9.74582e-006
1.98000e-001 6.73561e-006
1.98500e-001 6.95080e-006
1.99000e-001 1.03681e-005
1.99500e-001 1.33002e-005
2.00000e-001 1.32786e-005
2.00500e-001 1.08515e-005
2.01000e-001 6.99439e-006
2.01500e-001 4.76249e-006
2.02000e-001 5.03554e-006
2.02500e-001 6.30049e-006
2.03000e-001 6.53853e-006
2.03500e-001 6.74258e-006
2.04000e-001 8.30994e-006
2.04500e-001 9.87287e-006
2.05000e-001 9.68340e-006
2.05500e-001 8.35574e-006
2.06000e-001 7.94574e-006
2.06500e-001 8.22656e-006
2.07000e-001 1.01206e-005
2.07500e-001 1.37210e-005
2.08000e-001 1.67290e-005
2.08500e-001 1.74657e-005
2.09000e-001 1.69514e-005
2.09500e-001 1.60149e-005
2.10000e-001 1.43101e-005
2.10500e-001 1.28648e-005
2.11000e-001 1.30451e-005
2.11500e-001 1.35706e-005
2.12000e-001 1.25425e-005
2.12500e-001 1.09526e-005
2.13000e-001 1.05141e-005
2.13500e-001 1.05893e-005
2.14000e-001 1.05819e-005
2.14500e-001 1.06703e-005
2.15000e-001 1.19492e-005
2.15500e-001 1.32468e-005
2.16000e-001 1.19426e-005
2.16500e-001 9.40378e-006
2.17000e-001 8.75201e-006
2.17500e-001 8.72646e-006
2.18000e-001 7.50640e-006
2.18500e-001 6.11273e-006
2.19000e-001 4.66956e-006
2.19500e-001 3.44566e-006
2.20000e-001 4.28476e-006
2.20500e-001 6.38858e-006
2.21000e-001 6.48942e-006
2.21500e-001 5.05611e-006
2.22000e-001 4.56065e-006
2.22500e-001 6.08700e-006
2.23000e-001 7.76789e-006
2.23500e-001 7.85218e-006
2.24000e-001 7.85267e-006
2.24500e-001 8.57642e-006
2.25000e-001 7.55936e-006
2.25500e-001 6.88889e-006
2.26000e-001 8.32597e-006
2.26500e-001 1.05006e-005
2.27000e-001 1.05505e-005
2.27500e-001 9.61296e-006
2.28000e-001 8.94040e-006
2.28500e-001 9.75366e-006
2.29000e-001 1.12862e-005
2.29500e-001 1.19616e-005
2.30000e-001 1.19707e-005
2.30500e-001 1.22072e-005
2.31000e-001 1.27137e-005
2.31500e-001 1.24599e-005
2.32000e-001 1.10132e-005
2.32500e-001 9.26711e-006
2.33000e-001 8.87451e-006
2.33500e-001 9.94677e-006
2.34000e-001 1.00546e-005
2.34500e-001 8.80901e-006
2.35000e-001 8.26496e-006
2.35500e-001 9.39510e-006
2.36000e-001 1.13038e-005
2.36500e-001 1.11925e-005
2.37000e-001 9.34938e-006
2.37500e-001 8.73178e-006
2.38000e-001 9.95097e-006
2.38500e-001 1.08021e-005
2.39000e-001 1.12017e-005
2.39500e-001 1.06549e-005
2.40000e-001 1.22937e-005
2.40500e-001 1.48544e-005
2.41000e-001 1.66616e-005
2.41500e-001 1.55591e-005
2.42000e-001 1.31846e-005
2.42500e-001 1.22319e-005
2.43000e-001 1.22752e-005
2.43500e-001 1.26165e-005
2.44000e-001 1.38770e-005
2.44500e-001 1.49817e-005
2.45000e-001 1.47342e-005
2.45500e-001 1.34224e-005
2.46000e-001 1.24401e-005
2.46500e-001 1.38299e-005
2.47000e-001 1.52824e-005
2.47500e-001 1.37892e-005
2.48000e-001 1.07408e-005
2.48500e-001 8.53420e-006
2.49000e-001 7.61826e-006
2.49500e-001 8.62915e-006
2.50000e-001 1.07409e-005
2.50500e-001 1.18828e-005
2.51000e-001 1.24309e-005
2.51500e-001 1.00632e-005
2.52000e-001 5.79185e-006
2.52500e-001 4.24118e-006
2.53000e-001 4.32803e-006
2.53500e-001 5.41621e-006
2.54000e-001 6.52650e-006
2.54500e-001 6.94281e-006
2.55000e-001 7.27091e-006
2.55500e-001 7.94436e-006
2.56000e-001 8.91659e-006
2.56500e-001 9.76191e-006
2.57000e-001 1.05191e-005
2.57500e-001 1.06725e-005
2.58000e-001 1.00592e-005
2.58500e-001 1.07851e-005
2.59000e-001 1.20116e-005
2.59500e-001 1.12849e-005
2.60000e-001 1.05142e-005
2.60500e-001 1.14111e-005
2.61000e-001 1.36478e-005
2.61500e-001 1.60013e-005
2.62000e-001 1.67473e-005
2.62500e-001 1.48524e-005
2.63000e-001 1.28948e-005
2.63500e-001 1.10718e-005
2.64000e-001 9.65544e-006
2.64500e-001 8.92188e-006
2.65000e-001 9.55334e-006
2.65500e-001 1.11176e-005
2.66000e-001 1.29800e-005
2.66500e-001 1.35126e-005
2.67000e-001 1.18955e-005
2.67500e-001 1.00490e-005
2.68000e-001 9.91648e-006
2.68500e-001 1.05734e-005
2.69000e-001 1.00173e-005
2.69500e-001 1.04586e-005
2.70000e-001 1.10238e-005
2.70500e-001 1.05966e-005
2.71000e-001 1.00091e-005
2.71500e-001 9.10273e-006
2.72000e-001 9.99496e-006
2.72500e-001 1.25486e-005
2.73000e-001 1.33141e-005
2.73500e-001 1.19184e-005
2.74000e-001 9.81172e-006
2.74500e-001 8.76680e-006
2.75000e-001 9.38885e-006
2.75500e-001 1.03752e-005
2.76000e-001 9.95045e-006
2.76500e-001 7.92848e-006
2.77000e-001 8.07512e-006
2.77500e-001 9.73408e-006
2.78000e-001 9.95473e-006
2.78500e-001 1.02356e-005
2.79000e-001 1.12067e-005
2.79500e-001 1.20261e-005
2.80000e-001 1.19385e-005
2.80500e-001 1.22348e-005
2.81000e-001 1.17683e-005
2.81500e-001 1.01140e-005
2.82000e-001 9.61078e-006
2.82500e-001 1.12789e-005
2.83000e-001 1.26373e-005
2.83500e-001 1.20243e-005
2.84000e-001 1.07041e-005
2.84500e-001 1.08845e-005
2.85000e-001 1.16402e-005
2.85500e-001 1.15888e-005
2.86000e-001 1.04662e-005
2.86500e-001 8.84656e-006
2.87000e-001 8.74758e-006
2.87500e-001 9.87800e-006
2.88000e-001 1.20603e-005
2.88500e-001 1.30086e-005
2.89000e-001 1.10943e-005
2.89500e-001 9.62727e-006
2.90000e-001 9.85556e-006
2.90500e-001 1.09799e-005
2.91000e-001 1.12902e-005
2.91500e-001 1.11990e-005
2.92000e-001 1.13648e-005
2.92500e-001 1.22406e-005
2.93000e-001 1.34220e-005
2.93500e-001 1.31069e-005
2.94000e-001 1.20682e-005
2.94500e-001 1.15042e-005
2.95000e-001 1.12911e-005
2.95500e-001 1.20019e-005
2.96000e-001 1.33477e-005
2.96500e-001 1.44332e-005
2.97000e-001 1.40082e-005
2.97500e-001 1.15280e-005
2.98000e-001 8.90906e-006
2.98500e-001 7.65474e-006
2.99000e-001 8.08922e-006
2.99500e-001 9.17466e-006
3.00000e-001 9.61503e-006
3.00500e-001 9.32127e-006
3.01000e-001 7.69222e-006
3.01500e-001 6.31025e-006
3.02000e-001 6.30262e-006
3.02500e-001 7.32025e-006
3.03000e-001 9.23745e-006
3.03500e-001 1.10621e-005
3.04000e-001 1.30015e-005
3.04500e-001 1.39054e-005
3.05000e-001 1.40893e-005
3.05500e-001 1.26942e-005
3.06000e-001 1.10596e-005
3.06500e-001 9.85917e-006
3.07000e-001 1.00624e-005
3.07500e-001 1.15977e-005
3.08000e-001 1.33969e-005
3.08500e-001 1.30577e-005
3.09000e-001 1.18492e-005
3.09500e-001 1.16212e-005
3.10000e-001 1.26103e-005
3.10500e-001 1.42338e-005
3.11000e-001 1.51414e-005
3.11500e-001 1.47421e-005
3.12000e-001 1.34971e-005
3.12500e-001 1.21390e-005
3.13000e-001 1.12014e-005
3.13500e-001 9.84950e-006
3.14000e-001 8.11659e-006
3.14500e-001 8.47028e-006
3.15000e-001 1.02536e-005
3.15500e-001 1.03414e-005
3.16000e-001 9.04883e-006
3.16500e-001 8.57959e-006
3.17000e-001 8.81582e-006
3.17500e-001 8.89553e-006
3.18000e-001 8.65067e-006
3.18500e-001 7.60518e-006
3.19000e-001 6.52361e-006
3.19500e-001 5.75782e-006
3.20000e-001 4.72635e-006
3.20500e-001 3.87681e-006
3.21000e-001 5.43360e-006
3.21500e-001 8.18241e-006
3.22000e-001 1.05907e-005
3.22500e-001 1.09463e-005
3.23000e-001 9.91738e-006
3.23500e-001 9.86907e-006
3.24000e-001 1.03919e-005
3.24500e-001 9.59848e-006
3.25000e-001 8.56693e-006
3.25500e-001 8.16549e-006
3.26000e-001 8.23959e-006
3.26500e-001 8.16408e-006
3.27000e-001 7.43621e-006
3.27500e-001 7.64832e-006
3.28000e-001 8.91388e-006
3.28500e-001 1.00514e-005
3.29000e-001 9.82968e-006
3.29500e-001 9.77553e-006
3.30000e-001 9.71164e-006
3.30500e-001 1.10628e-005
3.31000e-001 1.31050e-005
3.31500e-001 1.41334e-005
3.32000e-001 1.36793e-005
3.32500e-001 1.28569e-005
3.33000e-001 1.16718e-005
3.33500e-001 1.18629e-005
3.34000e-001 1.28207e-005
3.34500e-001 1.36448e-005
3.35000e-001 1.31031e-005
3.35500e-001 1.12651e-005
3.36000e-001 8.28679e-006
3.36500e-001 7.27129e-006
3.37000e-001 7.79261e-006
3.37500e-001 8.44241e-006
3.38000e-001 7.24749e-006
3.38500e-001 6.10104e-006
3.39000e-001 8.06752e-006
3.39500e-001 9.55329e-006
3.40000e-001 8.35704e-006
3.40500e-001 7.61840e-006
3.41000e-001 9.29431e-006
3.41500e-001 1.07598e-005
3.42000e-001 1.00831e-005
3.42500e-001 9.93394e-006
3.43000e-001 1.13711e-005
3.43500e-001 1.22904e-005
3.44000e-001 1.27062e-005
3.44500e-001 1.35523e-005
3.45000e-001 1.38294e-005
3.45500e-001 1.39555e-005
3.46000e-001 1.39321e-005
3.46500e-001 1.30065e-005
3.47000e-001 1.26610e-005
3.47500e-001 1.24881e-005
3.48000e-001 1.18306e-005
3.48500e-001 1.17442e-005
3.49000e-001 1.18448e-005
3.49500e-001 1.04841e-005
3.50000e-001 8.66703e-006
3.50500e-001 7.92378e-006
3.51000e-001 8.95256e-006
3.51500e-001 1.00825e-005
3.52000e-001 9.43400e-006
3.52500e-001 7.67636e-006
3.53000e-001 6.56602e-006
3.53500e-001 6.53697e-006
3.54000e-001 7.62232e-006
3.54500e-001 9.54185e-006
3.55000e-001 9.75604e-006
3.55500e-001 8.64496e-006
3.56000e-001 8.50305e-006
3.56500e-001 8.70771e-006
3.57000e-001 9.37875e-006
3.57500e-001 1.10672e-005
3.58000e-001 1.34225e-005
3.58500e-001 1.46920e-005
3.59000e-001 1.41269e-005
3.59500e-001 1.33323e-005
3.60000e-001 1.30184e-005
3.60500e-001 1.28096e-005
3.61000e-001 1.06772e-005
3.61500e-001 8.16457e-006
3.62000e-001 7.38805e-006
3.62500e-001 8.48291e-006
3.63000e-001 9.17399e-006
3.63500e-001 9.60612e-006
3.64000e-001 1.06414e-005
3.64500e-001 1.24964e-005
3.65000e-001 1.38252e-005
3.65500e-001 1.42313e-005
3.66000e-001 1.39548e-005
3.66500e-001 1.30571e-005
3.67000e-001 1.17043e-005
3.67500e-001 9.29952e-006
3.68000e-001 7.74129e-006
3.68500e-001 7.94321e-006
3.69000e-001 7.28824e-006
3.69500e-001 6.06616e-006
3.70000e-001 6.25651e-006
3.70500e-001 7.90037e-006
3.71000e-001 9.38243e-006
3.71500e-001 1.10068e-005
3.72000e-001 1.14126e-005
3.72500e-001 1.05677e-005
3.73000e-001 8.89673e-006
3.73500e-001 8.29760e-006
3.74000e-001 8.84968e-006
3.74500e-001 1.05552e-005
3.75000e-001 1.14192e-005
3.75500e-001 1.21307e-005
3.76000e-001 1.41280e-005
3.76500e-001 1.53769e-005
3.77000e-001 1.51223e-005
3.77500e-001 1.44294e-005
3.78000e-001 1.33502e-005
3.78500e-001 1.23400e-005
3.79000e-001 1.27468e-005
3.79500e-001 1.33600e-005
3.80000e-001 1.31300e-005
3.80500e-001 1.25189e-005
3.81000e-001 1.12730e-005
3.81500e-001 1.05127e-005
3.82000e-001 1.09551e-005
3.82500e-001 1.10539e-005
3.83000e-001 9.74255e-006
3.83500e-001 8.31108e-006
3.84000e-001 7.11494e-006
3.84500e-001 7.18047e-006
3.85000e-001 7.23392e-006
3.85500e-001 8.19174e-006
3.86000e-001 8.30943e-006
3.86500e-001 7.49492e-006
3.87000e-001 6.22081e-006
3.87500e-001 5.79966e-006
3.88000e-001 5.97084e-006
3.88500e-001 6.84002e-006
3.89000e-001 9.20055e-006
3.89500e-001 1.25906e-005
3.90000e-001 1.44013e-005
3.90500e-001 1.41182e-005
3.91000e-001 1.33068e-005
3.91500e-001 1.33935e-005
3.92000e-001 1.39112e-005
3.92500e-001 1.28986e-005
3.93000e-001 1.10960e-005
3.93500e-001 1.04081e-005
3.94000e-001 1.05217e-005
3.94500e-001 1.00010e-005
3.95000e-001 9.53081e-006
3.95500e-001 1.03546e-005
3.96000e-001 1.03575e-005
3.96500e-001 1.06189e-005
3.97000e-001 1.17631e-005
3.97500e-001 1.20742e-005
3.98000e-001 1.23916e-005
3.98500e-001 1.30118e-005
3.99000e-001 1.41659e-005
3.99500e-001 1.33670e-005
4.00000e-001 1.10657e-005
4.00500e-001 9.17995e-006
4.01000e-001 9.27365e-006
4.01500e-001 9.61341e-006
4.02000e-001 9.48322e-006
4.02500e-001 8.73497e-006
4.03000e-001 7.46832e-006
4.03500e-001 7.23555e-006
4.04000e-001 8.28869e-006
4.04500e-001 9.58385e-006
4.05000e-001 1.01576e-005
4.05500e-001 1.09713e-005
4.06000e-001 1.21944e-005
4.06500e-001 1.27561e-005
4.07000e-001 1.21868e-005
4.07500e-001 1.04073e-005
4.08000e-001 8.65407e-006
4.08500e-001 8.33106e-006
4.09000e-001 9.03541e-006
4.09500e-001 9.41131e-006
4.10000e-001 9.60830e-006
4.10500e-001 1.02127e-005
4.11000e-001 1.03977e-005
4.11500e-001 1.03722e-005
4.12000e-001 1.13034e-005
4.12500e-001 1.20236e-005
4.13000e-001 1.24510e-005
4.13500e-001 1.19071e-005
4.14000e-001 1.06203e-005
4.14500e-001 1.06199e-005
4.15000e-001 1.09505e-005
4.15500e-001 9.38716e-006
4.16000e-001 9.20978e-006
4.16500e-001 9.79312e-006
4.17000e-001 9.62540e-006
4.17500e-001 1.02445e-005
4.18000e-001 1.11783e-005
4.18500e-001 1.24357e-005
4.19000e-001 1.17661e-005
4.19500e-001 1.01006e-005
4.20000e-001 1.04031e-005
4.20500e-001 1.07322e-005
4.21000e-001 1.05069e-005
4.21500e-001 9.99401e-006
4.22000e-001 9.15309e-006
4.22500e-001 9.97867e-006
4.23000e-001 1.13581e-005
4.23500e-001 1.16746e-005
4.24000e-001 1.13826e-005
4.24500e-001 1.11659e-005
4.25000e-001 1.19068e-005
4.25500e-001 1.41630e-005
4.26000e-001 1.52992e-005
4.26500e-001 1.57194e-005
4.27000e-001 1.58269e-005
4.27500e-001 1.49536e-005
4.28000e-001 1.40696e-005
4.28500e-001 1.37684e-005
4.29000e-001 1.27446e-005
4.29500e-001 1.20546e-005
4.30000e-001 1.26380e-005
4.30500e-001 1.28577e-005
4.31000e-001 1.09711e-005
4.31500e-001 1.01593e-005
4.32000e-001 1.12606e-005
4.32500e-001 1.27972e-005
4.33000e-001 1.33876e-005
4.33500e-001 1.27056e-005
4.34000e-001 1.13130e-005
4.34500e-001 9.97650e-006
4.35000e-001 9.11684e-006
4.35500e-001 8.52036e-006
4.36000e-001 9.27330e-006
4.36500e-001 9.70997e-006
4.37000e-001 8.73992e-006
4.37500e-001 6.89889e-006
4.38000e-001 6.58760e-006
4.38500e-001 8.49309e-006
4.39000e-001 1.01143e-005
4.39500e-001 1.13288e-005
4.40000e-001 1.16748e-005
4.40500e-001 1.08045e-005
4.41000e-001 1.07351e-005
4.41500e-001 1.21601e-005
4.42000e-001 1.22946e-005
4.42500e-001 1.25004e-005
4.43000e-001 1.34270e-005
4.43500e-001 1.43433e-005
4.44000e-001 1.44759e-005
4.44500e-001 1.42281e-005
4.45000e-001 1.32741e-005
4.45500e-001 1.12135e-005
4.46000e-001 9.77837e-006
4.46500e-001 1.03891e-005
4.47000e-001 1.18099e-005
4.47500e-001 1.30471e-005
4.48000e-001 1.43579e-005
4.48500e-001 1.53119e-005
4.49000e-001 1.47578e-005
4.49500e-001 1.25952e-005
4.50000e-001 1.14017e-005
4.50500e-001 1.23187e-005
4.51000e-001 1.37374e-005
4.51500e-001 1.34812e-005
4.52000e-001 1.14546e-005
4.52500e-001 9.26595e-006
4.53000e-001 7.84935e-006
4.53500e-001 7.09041e-006
4.54000e-001 6.71007e-006
4.54500e-001 7.30732e-006
4.55000e-001 7.34964e-006
4.55500e-001 8.41307e-006
4.56000e-001 9.04912e-006
4.56500e-001 9.67045e-006
4.57000e-001 1.04831e-005
4.57500e-001 1.06950e-005
4.58000e-001 1.19601e-005
4.58500e-001 1.37527e-005
4.59000e-001 1.32949e-005
4.59500e-001 1.22599e-005
4.60000e-001 1.27948e-005
4.60500e-001 1.31974e-005
4.61000e-001 1.24715e-005
4.61500e-001 1.18033e-005
4.62000e-001 1.24643e-005
4.62500e-001 1.36735e-005
4.63000e-001 1.26570e-005
4.63500e-001 9.48253e-006
4.64000e-001 6.96999e-006
4.64500e-001 6.18130e-006
4.65000e-001 7.34977e-006
4.65500e-001 8.58208e-006
4.66000e-001 7.23701e-006
4.66500e-001 5.96788e-006
4.67000e-001 4.95155e-006
4.67500e-001 5.04224e-006
4.68000e-001 4.88422e-006
4.68500e-001 3.96473e-006
4.69000e-001 3.60162e-006
4.69500e-001 5.08499e-006
4.70000e-001 7.59344e-006
4.70500e-001 9.32300e-006
4.71000e-001 8.73715e-006
4.71500e-001 7.84566e-006
4.72000e-001 7.87334e-006
4.72500e-001 7.63650e-006
4.73000e-001 7.70851e-006
4.73500e-001 9.58862e-006
4.74000e-001 1.22800e-005
4.74500e-001 1.31325e-005
4.75000e-001 1.18315e-005
4.75500e-001 1.06500e-005
4.76000e-001 1.13047e-005
4.76500e-001 1.25982e-005
4.77000e-001 1.22629e-005
4.77500e-001 1.20407e-005
4.78000e-001 1.30680e-005
4.78500e-001 1.31829e-005
4.79000e-001 1.26809e-005
4.79500e-001 1.23750e-005
4.80000e-001 1.20942e-005
4.80500e-001 1.26874e-005
4.81000e-001 1.23016e-005
4.81500e-001 1.09386e-005
4.82000e-001 9.62959e-006
4.82500e-001 9.41480e-006
4.83000e-001 9.88546e-006
4.83500e-001 9.14308e-006
4.84000e-001 8.42468e-006
4.84500e-001 7.58004e-006
4.85000e-001 7.74836e-006
4.85500e-001 9.51957e-006
4.86000e-001 9.99085e-006
4.86500e-001 8.14289e-006
4.87000e-001 6.96911e-006
4.87500e-001 6.95650e-006
4.88000e-001 6.87241e-006
4.88500e-001 7.58912e-006
4.89000e-001 9.13899e-006
4.89500e-001 1.00244e-005
4.90000e-001 9.31564e-006
4.90500e-001 8.43101e-006
4.91000e-001 7.68467e-006
4.91500e-001 6.39562e-006
4.92000e-001 7.87819e-006
4.92500e-001 1.17799e-005
4.93000e-001 1.30621e-005
4.93500e-001 1.14381e-005
4.94000e-001 9.65786e-006
4.94500e-001 9.11253e-006
4.95000e-001 9.47385e-006
4.95500e-001 1.08007e-005
4.96000e-001 1.07614e-005
4.96500e-001 9.20421e-006
4.97000e-001 7.43935e-006
4.97500e-001 8.04695e-006
4.98000e-001 1.05369e-005
4.98500e-001 1.13561e-005
4.99000e-001 1.08959e-005
4.99500e-001 1.02530e-005
5.00000e-001 8.51093e-006
5.00500e-001 8.28429e-006
5.01000e-001 1.00592e-005
5.01500e-001 1.09214e-005
5.02000e-001 1.05019e-005
5.02500e-001 1.03069e-005
5.03000e-001 1.07255e-005
5.03500e-001 1.05092e-005
5.04000e-001 1.07604e-005
5.04500e-001 1.13411e-005
5.05000e-001 1.16941e-005
5.05500e-001 1.03061e-005
5.06000e-001 9.14645e-006
5.06500e-001 1.11674e-005
5.07000e-001 1.28067e-005
5.07500e-001 1.36426e-005
5.08000e-001 1.46615e-005
5.08500e-001 1.36097e-005
5.09000e-001 1.29406e-005
5.09500e-001 1.26628e-005
5.10000e-001 1.03939e-005
5.10500e-001 7.62291e-006
5.11000e-001 7.50056e-006
5.11500e-001 7.80298e-006
5.12000e-001 7.90230e-006
5.12500e-001 8.57797e-006
5.13000e-001 9.22692e-006
5.13500e-001 9.18467e-006
5.14000e-001 9.85974e-006
5.14500e-001 1.14371e-005
5.15000e-001 1.22494e-005
5.15500e-001 1.26431e-005
5.16000e-001 1.29508e-005
5.16500e-001 1.24334e-005
5.17000e-001 1.05559e-005
5.17500e-001 8.25187e-006
5.18000e-001 8.37632e-006
5.18500e-001 1.01579e-005
5.19000e-001 1.03713e-005
5.19500e-001 1.08350e-005
5.20000e-001 1.14502e-005
5.20500e-001 1.15842e-005
5.21000e-001 1.17012e-005
5.21500e-001 1.22877e-005
5.22000e-001 1.17902e-005
5.22500e-001 1.18147e-005
5.23000e-001 1.26967e-005
5.23500e-001 1.42835e-005
5.24000e-001 1.61909e-005
5.24500e-001 1.69422e-005
5.25000e-001 1.55790e-005
5.25500e-001 1.45676e-005
5.26000e-001 1.49462e-005
5.26500e-001 1.53000e-005
5.27000e-001 1.47709e-005
5.27500e-001 1.50624e-005
5.28000e-001 1.54770e-005
5.28500e-001 1.50964e-005
5.29000e-001 1.54700e-005
5.29500e-001 1.55133e-005
5.30000e-001 1.45817e-005
5.30500e-001 1.43691e-005
5.31000e-001 1.56922e-005
5.31500e-001 1.63836e-005
5.32000e-001 1.50474e-005
5.32500e-001 1.29391e-005
5.33000e-001 1.10054e-005
5.33500e-001 1.18645e-005
5.34000e-001 1.28609e-005
5.34500e-001 1.26678e-005
5.35000e-001 1.14393e-005
5.35500e-001 1.02845e-005
5.36000e-001 1.01682e-005
5.36500e-001 1.11124e-005
5.37000e-001 1.00624e-005
5.37500e-001 7.28360e-006
5.38000e-001 4.96155e-006
5.38500e-001 3.80580e-006
5.39000e-001 3.89880e-006
5.39500e-001 5.23419e-006
5.40000e-001 7.47261e-006
5.40500e-001 9.22015e-006
5.41000e-001 9.89999e-006
5.41500e-001 1.01033e-005
5.42000e-001 1.07014e-005
5.42500e-001 1.17517e-005
5.43000e-001 1.19407e-005
5.43500e-001 1.05903e-005
5.44000e-001 9.18089e-006
5.44500e-001 9.56720e-006
5.45000e-001 1.03463e-005
5.45500e-001 1.03092e-005
5.46000e-001 8.68648e-006
5.46500e-001 7.06628e-006
5.47000e-001 8.01636e-006
5.47500e-001 1.00533e-005
5.48000e-001 1.12025e-005
5.48500e-001 1.01930e-005
5.49000e-001 9.52808e-006
5.49500e-001 1.05772e-005
5.50000e-001 1.19162e-005
5.50500e-001 1.17072e-005
5.51000e-001 1.13408e-005
5.51500e-001 1.10467e-005
5.52000e-001 1.06235e-005
5.52500e-001 1.14653e-005
5.53000e-001 1.32400e-005
5.53500e-001 1.33628e-005
5.54000e-001 1.13129e-005
5.54500e-001 9.33700e-006
5.55000e-001 8.20993e-006
5.55500e-001 7.35121e-006
5.56000e-001 7.14286e-006
5.56500e-001 8.01550e-006
5.57000e-001 9.88791e-006
5.57500e-001 1.18480e-005
5.58000e-001 1.29496e-005
5.58500e-001 1.32345e-005
5.59000e-001 1.19513e-005
5.59500e-001 9.85720e-006
5.60000e-001 8.81570e-006
5.60500e-001 8.62857e-006
5.61000e-001 8.34033e-006
5.61500e-001 7.70625e-006
5.62000e-001 7.73932e-006
5.62500e-001 8.02391e-006
5.63000e-001 8.81457e-006
5.63500e-001 1.01209e-005
5.64000e-001 1.20393e-005
5.64500e-001 1.28700e-005
5.65000e-001 1.28922e-005
5.65500e-001 1.24345e-005
5.66000e-001 1.22381e-005
5.66500e-001 1.22923e-005
5.67000e-001 1.22571e-005
5.67500e-001 1.18311e-005
5.68000e-001 1.07371e-005
5.68500e-001 9.40951e-006
5.69000e-001 7.89100e-006
5.69500e-001 6.64494e-006
5.70000e-001 5.63666e-006
5.70500e-001 4.86457e-006
5.71000e-001 5.20341e-006
5.71500e-001 5.53318e-006
5.72000e-001 5.56928e-006
5.72500e-001 4.01976e-006
5.73000e-001 3.56467e-006
5.73500e-001 5.30155e-006
5.74000e-001 8.22193e-006
5.74500e-001 1.05485e-005
5.75000e-001 1.15104e-005
5.75500e-001 1.17735e-005
5.76000e-001 1.14585e-005
5.76500e-001 1.00606e-005
5.77000e-001 1.07019e-005
5.77500e-001 1.10471e-005
5.78000e-001 8.19839e-006
5.78500e-001 6.52547e-006
5.79000e-001 8.65081e-006
5.79500e-001 1.01681e-005
5.80000e-001 9.37918e-006
5.80500e-001 1.04155e-005
5.81000e-001 1.34497e-005
5.81500e-001 1.57805e-005
5.82000e-001 1.53837e-005
5.82500e-001 1.27357e-005
5.83000e-001 1.03509e-005
5.83500e-001 1.00512e-005
5.84000e-001 1.21285e-005
5.84500e-001 1.36425e-005
5.85000e-001 1.31635e-005
5.85500e-001 1.10889e-005
5.86000e-001 9.30736e-006
5.86500e-001 8.34560e-006
5.87000e-001 8.36589e-006
5.87500e-001 1.11734e-005
5.88000e-001 1.34999e-005
5.88500e-001 1.46952e-005
5.89000e-001 1.34452e-005
5.89500e-001 1.22597e-005
5.90000e-001 1.16447e-005
5.90500e-001 1.04123e-005
5.91000e-001 1.05629e-005
5.91500e-001 1.06104e-005
5.92000e-001 1.06461e-005
5.92500e-001 1.18353e-005
5.93000e-001 1.28467e-005
5.93500e-001 1.33184e-005
5.94000e-001 1.42273e-005
5.94500e-001 1.49689e-005
5.95000e-001 1.46950e-005
5.95500e-001 1.30296e-005
5.96000e-001 1.18112e-005
5.96500e-001 1.17554e-005
5.97000e-001 1.17195e-005
5.97500e-001 1.22209e-005
5.98000e-001 1.16505e-005
5.98500e-001 1.00529e-005
5.99000e-001 9.77517e-006
5.99500e-001 1.08912e-005
6.00000e-001 9.87414e-006
6.00500e-001 8.74042e-006
6.01000e-001 9.19951e-006
6.01500e-001 9.21504e-006
6.02000e-001 9.13001e-006
6.02500e-001 8.78695e-006
6.03000e-001 8.78318e-006
6.03500e-001 9.44896e-006
6.04000e-001 1.02174e-005
6.04500e-001 8.99377e-006
6.05000e-001 7.79296e-006
6.05500e-001 8.33503e-006
6.06000e-001 9.67961e-006
6.06500e-001 1.06203e-005
6.07000e-001 1.06354e-005
6.07500e-001 1.05435e-005
6.08000e-001 1.00587e-005
6.08500e-001 9.92557e-006
6.09000e-001 9.29228e-006
6.09500e-001 8.40706e-006
6.10000e-001 8.08141e-006
6.10500e-001 7.43185e-006
6.11000e-001 8.29690e-006
6.11500e-001 9.86077e-006
6.12000e-001 1.09233e-005
6.12500e-001 1.11216e-005
6.13000e-001 1.18548e-005
6.13500e-001 1.27499e-005
6.14000e-001 1.29644e-005
6.14500e-001 1.08436e-005
6.15000e-001 9.06808e-006
6.15500e-001 9.33607e-006
6.16000e-001 9.63599e-006
6.16500e-001 9.49882e-006
6.17000e-001 8.16476e-006
6.17500e-001 8.50396e-006
6.18000e-001 1.10126e-005
6.18500e-001 1.25050e-005
6.19000e-001 1.15379e-005
6.19500e-001 1.09623e-005
6.20000e-001 1.02584e-005
6.20500e-001 9.08588e-006
6.21000e-001 9.04523e-006
6.21500e-001 1.01259e-005
6.22000e-001 1.03833e-005
6.22500e-001 9.27671e-006
6.23000e-001 8.33995e-006
6.23500e-001 9.51437e-006
6.24000e-001 1.15299e-005
6.24500e-001 1.13656e-005
6.25000e-001 1.06613e-005
6.25500e-001 1.11821e-005
6.26000e-001 1.31375e-005
6.26500e-001 1.44519e-005
6.27000e-001 1.46993e-005
6.27500e-001 1.53841e-005
6.28000e-001 1.51178e-005
6.28500e-001 1.56222e-005
6.29000e-001 1.47955e-005
6.29500e-001 1.33092e-005
6.30000e-001 1.28207e-005
6.30500e-001 1.27505e-005
6.31000e-001 1.12793e-005
6.31500e-001 8.80389e-006
6.32000e-001 7.38945e-006
6.32500e-001 7.29197e-006
6.33000e-001 8.53770e-006
6.33500e-001 1.06582e-005
6.34000e-001 1.19765e-005
6.34500e-001 1.19594e-005
6.35000e-001 1.10476e-005
6.35500e-001 1.04352e-005
6.36000e-001 1.15778e-005
6.36500e-001 1.31364e-005
6.37000e-001 1.13511e-005
6.37500e-001 7.06472e-006
6.38000e-001 5.11087e-006
6.38500e-001 6.84602e-006
6.39000e-001 9.39086e-006
6.39500e-001 8.71345e-006
6.40000e-001 7.72101e-006
6.40500e-001 7.47288e-006
6.41000e-001 8.27917e-006
6.41500e-001 1.04359e-005
6.42000e-001 1.02323e-005
6.42500e-001 8.81262e-006
6.43000e-001 8.92569e-006
6.43500e-001 9.97390e-006
6.44000e-001 8.89427e-006
6.44500e-001 7.52312e-006
6.45000e-001 6.27244e-006
6.45500e-001 6.62334e-006
6.46000e-001 7.61000e-006
6.46500e-001 7.25595e-006
6.47000e-001 7.20478e-006
6.47500e-001 7.93248e-006
6.48000e-001 8.80974e-006
6.48500e-001 8.04261e-006
6.49000e-001 8.06730e-006
6.49500e-001 9.80084e-006
6.50000e-001 1.05622e-005
6.50500e-001 1.17479e-005
6.51000e-001 1.25771e-005
6.51500e-001 1.11335e-005
6.52000e-001 9.82142e-006
6.52500e-001 9.76191e-006
6.53000e-001 1.02551e-005
6.53500e-001 1.06887e-005
6.54000e-001 1.00121e-005
6.54500e-001 8.64634e-006
6.55000e-001 8.53219e-006
6.55500e-001 9.33172e-006
6.56000e-001 8.75145e-006
6.56500e-001 9.10511e-006
6.57000e-001 1.01726e-005
6.57500e-001 1.06046e-005
6.58000e-001 1.02189e-005
6.58500e-001 8.93717e-006
6.59000e-001 7.46000e-006
6.59500e-001 8.04357e-006
6.60000e-001 1.04117e-005
6.60500e-001 1.20370e-005
6.61000e-001 1.26049e-005
6.61500e-001 1.24618e-005
6.62000e-001 1.14363e-005
6.62500e-001 1.16817e-005
6.63000e-001 1.31527e-005
6.63500e-001 1.34204e-005
6.64000e-001 1.32090e-005
6.64500e-001 1.39312e-005
6.65000e-001 1.40830e-005
6.65500e-001 1.26402e-005
6.66000e-001 1.25363e-005
6.66500e-001 1.37199e-005
6.67000e-001 1.30461e-005
6.67500e-001 1.21413e-005
6.68000e-001 1.32091e-005
6.68500e-001 1.61561e-005
6.69000e-001 1.94911e-005
6.69500e-001 1.95024e-005
6.70000e-001 1.61822e-005
6.70500e-001 1.17553e-005
6.71000e-001 9.84531e-006
6.71500e-001 9.80618e-006
6.72000e-001 1.22710e-005
6.72500e-001 1.49634e-005
6.73000e-001 1.40672e-005
6.73500e-001 1.31111e-005
6.74000e-001 1.49615e-005
6.74500e-001 1.63806e-005
6.75000e-001 1.59732e-005
6.75500e-001 1.40633e-005
6.76000e-001 1.29736e-005
6.76500e-001 1.30497e-005
6.77000e-001 1.30224e-005
6.77500e-001 1.36015e-005
6.78000e-001 1.30404e-005
6.78500e-001 1.04368e-005
6.79000e-001 8.55558e-006
6.79500e-001 8.86759e-006
6.80000e-001 8.63608e-006
6.80500e-001 5.99052e-006
6.81000e-001 4.41056e-006
6.81500e-001 5.68761e-006
6.82000e-001 7.20924e-006
6.82500e-001 6.10158e-006
6.83000e-001 4.38451e-006
6.83500e-001 3.38410e-006
6.84000e-001 4.03866e-006
6.84500e-001 4.32414e-006
6.85000e-001 3.48779e-006
6.85500e-001 2.84374e-006
6.86000e-001 3.79268e-006
6.86500e-001 6.29069e-006
6.87000e-001 7.92981e-006
6.87500e-001 9.31338e-006
6.88000e-001 1.12041e-005
6.88500e-001 1.10644e-005
6.89000e-001 9.08537e-006
6.89500e-001 8.48510e-006
6.90000e-001 1.07065e-005
6.90500e-001 1.31405e-005
6.91000e-001 1.34340e-005
6.91500e-001 1.35006e-005
6.92000e-001 1.40164e-005
6.92500e-001 1.38067e-005
6.93000e-001 1.30692e-005
6.93500e-001 1.11334e-005
6.94000e-001 9.42525e-006
6.94500e-001 9.13438e-006
6.95000e-001 9.85088e-006
6.95500e-001 1.19438e-005
6.96000e-001 1.26992e-005
6.96500e-001 1.11452e-005
6.97000e-001 1.00356e-005
6.97500e-001 9.48652e-006
6.98000e-001 9.93548e-006
6.98500e-001 1.12172e-005
6.99000e-001 1.22296e-005
6.99500e-001 1.07818e-005
7.00000e-001 1.02543e-005
7.00500e-001 1.18258e-005
7.01000e-001 1.23576e-005
7.01500e-001 1.22213e-005
7.02000e-001 1.18148e-005
7.02500e-001 1.06992e-005
7.03000e-001 9.89766e-006
7.03500e-001 8.62336e-006
7.04000e-001 7.71970e-006
7.04500e-001 7.98228e-006
7.05000e-001 7.75981e-006
7.05500e-001 8.00117e-006
7.06000e-001 9.50936e-006
7.06500e-001 1.11722e-005
7.07000e-001 1.06542e-005
7.07500e-001 9.22207e-006
7.08000e-001 8.30673e-006
7.08500e-001 1.09373e-005
7.09000e-001 1.33213e-005
7.09500e-001 1.40623e-005
7.10000e-001 1.39315e-005
7.10500e-001 1.45127e-005
7.11000e-001 1.56959e-005
7.11500e-001 1.74986e-005
7.12000e-001 1.96369e-005
7.12500e-001 1.98148e-005
7.13000e-001 1.74975e-005
7.13500e-001 1.39770e-005
7.14000e-001 1.02679e-005
7.14500e-001 7.17587e-006
7.15000e-001 6.81243e-006
7.15500e-001 8.52105e-006
7.16000e-001 1.00131e-005
7.16500e-001 1.00699e-005
7.17000e-001 9.58090e-006
7.17500e-001 1.00526e-005
7.18000e-001 1.03741e-005
7.18500e-001 8.92417e-006
7.19000e-001 7.15850e-006
7.19500e-001 7.95924e-006
7.20000e-001 9.84452e-006
7.20500e-001 9.93028e-006
7.21000e-001 1.03463e-005
7.21500e-001 1.21415e-005
7.22000e-001 1.44561e-005
7.22500e-001 1.64117e-005
7.23000e-001 1.70167e-005
7.23500e-001 1.84116e-005
7.24000e-001 1.80252e-005
7.24500e-001 1.69730e-005
7.25000e-001 1.65324e-005
7.25500e-001 1.65267e-005
7.26000e-001 1.56310e-005
7.26500e-001 1.32506e-005
7.27000e-001 1.13805e-005
7.27500e-001 1.05751e-005
7.28000e-001 1.08656e-005
7.28500e-001 1.07241e-005
7.29000e-001 1.14501e-005
7.29500e-001 1.29446e-005
7.30000e-001 1.39792e-005
7.30500e-001 1.39990e-005
7.31000e-001 1.32829e-005
7.31500e-001 1.23462e-005
7.32000e-001 1.08356e-005
7.32500e-001 9.92893e-006
7.33000e-001 9.27264e-006
7.33500e-001 9.03710e-006
7.34000e-001 9.90715e-006
7.34500e-001 1.12476e-005
7.35000e-001 1.15625e-005
7.35500e-001 1.10975e-005
7.36000e-001 1.12628e-005
7.36500e-001 1.10349e-005
7.37000e-001 1.07642e-005
7.37500e-001 1.25397e-005
7.38000e-001 1.27834e-005
7.38500e-001 1.12375e-005
7.39000e-001 9.48448e-006
7.39500e-001 9.51326e-006
7.40000e-001 9.15408e-006
7.40500e-001 8.18870e-006
7.41000e-001 8.51508e-006
7.41500e-001 8.29001e-006
7.42000e-001 7.76250e-006
7.42500e-001 9.10037e-006
7.43000e-001 1.06150e-005
7.43500e-001 1.13407e-005
7.44000e-001 1.16638e-005
7.44500e-001 1.20645e-005
7.45000e-001 1.27498e-005
7.45500e-001 1.33255e-005
7.46000e-001 1.39515e-005
7.46500e-001 1.33011e-005
7.47000e-001 1.14063e-005
7.47500e-001 8.82252e-006
7.48000e-001 6.31540e-006
7.48500e-001 5.87056e-006
7.49000e-001 6.93530e-006
7.49500e-001 8.22664e-006
7.50000e-001 9.85261e-006
7.50500e-001 1.05070e-005
7.51000e-001 8.71078e-006
7.51500e-001 6.19578e-006
7.52000e-001 7.82587e-006
7.52500e-001 1.07147e-005
7.53000e-001 1.09023e-005
7.53500e-001 8.49474e-006
7.54000e-001 6.03024e-006
7.54500e-001 5.89066e-006
7.55000e-001 7.31138e-006
7.55500e-001 8.87635e-006
7.56000e-001 9.03596e-006
7.56500e-001 8.81681e-006
7.57000e-001 8.42628e-006
7.57500e-001 8.13656e-006
7.58000e-001 9.63908e-006
7.58500e-001 1.16414e-005
7.59000e-001 1.25521e-005
7.59500e-001 1.21480e-005
7.60000e-001 1.14525e-005
7.60500e-001 1.14613e-005
7.61000e-001 1.02361e-005
7.61500e-001 8.37618e-006
7.62000e-001 8.51275e-006
7.62500e-001 9.74618e-006
7.63000e-001 9.99803e-006
7.63500e-001 9.14430e-006
7.64000e-001 8.37983e-006
7.64500e-001 8.68548e-006
7.65000e-001 8.98147e-006
7.65500e-001 7.77935e-006
7.66000e-001 5.92698e-006
7.66500e-001 6.00609e-006
7.67000e-001 7.49398e-006
7.67500e-001 7.16454e-006
7.68000e-001 5.77206e-006
7.68500e-001 5.01853e-006
7.69000e-001 5.02484e-006
7.69500e-001 5.20638e-006
7.70000e-001 4.91649e-006
7.70500e-001 4.01623e-006
7.71000e-001 3.64093e-006
7.71500e-001 5.29833e-006
7.72000e-001 6.72232e-006
7.72500e-001 5.86565e-006
7.73000e-001 5.74243e-006
7.73500e-001 7.25551e-006
7.74000e-001 7.95153e-006
7.74500e-001 6.48150e-006
7.75000e-001 3.76392e-006
7.75500e-001 3.15257e-006
7.76000e-001 6.22445e-006
7.76500e-001 1.15307e-005
7.77000e-001 1.49507e-005
7.77500e-001 1.59248e-005
7.78000e-001 1.43945e-005
7.78500e-001 1.35119e-005
7.79000e-001 1.47842e-005
7.79500e-001 1.72974e-005
7.80000e-001 1.70147e-005
7.80500e-001 1.40644e-005
7.81000e-001 1.24370e-005
7.81500e-001 1.01442e-005
7.82000e-001 8.13954e-006
7.82500e-001 8.18740e-006
7.83000e-001 8.47488e-006
7.83500e-001 9.13663e-006
7.84000e-001 1.04757e-005
7.84500e-001 1.16368e-005
7.85000e-001 1.22512e-005
7.85500e-001 1.21960e-005
7.86000e-001 1.26849e-005
7.86500e-001 1.48043e-005
7.87000e-001 1.81154e-005
7.87500e-001 2.10433e-005
7.88000e-001 2.17274e-005
7.88500e-001 2.15739e-005
7.89000e-001 1.92966e-005
7.89500e-001 1.59725e-005
7.90000e-001 1.28319e-005
7.90500e-001 8.43151e-006
7.91000e-001 5.38916e-006
7.91500e-001 4.52963e-006
7.92000e-001 6.11675e-006
7.92500e-001 8.42771e-006
7.93000e-001 1.11739e-005
7.93500e-001 1.31425e-005
7.94000e-001 1.30898e-005
7.94500e-001 1.48125e-005
7.95000e-001 1.73578e-005
7.95500e-001 1.86931e-005
7.96000e-001 1.86190e-005
7.96500e-001 1.61190e-005
7.97000e-001 1.19087e-005
7.97500e-001 8.57370e-006
7.98000e-001 6.46550e-006
7.98500e-001 3.82445e-006
7.99000e-001 1.85325e-006
7.99500e-001 2.22922e-006
8.00000e-001 3.37020e-006
8.00500e-001 4.32060e-006
8.01000e-001 4.97255e-006
8.01500e-001 6.50510e-006
8.02000e-001 9.14541e-006
8.02500e-001 1.06374e-005
8.03000e-001 1.37302e-005
8.03500e-001 1.66801e-005
8.04000e-001 1.74094e-005
8.04500e-001 1.71253e-005
8.05000e-001 1.68709e-005
8.05500e-001 1.70813e-005
8.06000e-001 1.81160e-005
8.06500e-001 1.94609e-005
8.07000e-001 1.91178e-005
8.07500e-001 1.71638e-005
8.08000e-001 1.33306e-005
8.08500e-001 7.47386e-006
8.09000e-001 2.91176e-006
8.09500e-001 -1.08884e-008
8.10000e-001 -5.19114e-006
8.10500e-001 -9.88058e-006
8.11000e-001 -1.13837e-005
8.11500e-001 -1.10801e-005
8.12000e-001 -8.26559e-006
8.12500e-001 -4.88576e-006
8.13000e-001 -4.05750e-006
8.13500e-001 -4.45633e-006
8.14000e-001 -3.85464e-006
8.14500e-001 -1.70952e-006
8.15000e-001 9.17128e-008
8.15500e-001 -3.39976e-008
8.16000e-001 -9.08080e-007
8.16500e-001 1.09614e-006
8.17000e-001 4.51429e-006
8.17500e-001 7.91467e-006
8.18000e-001 1.04405e-005
8.18500e-001 1.23563e-005
8.19000e-001 1.53599e-005
8.19500e-001 1.94136e-005
8.20000e-001 2.12516e-005
8.20500e-001 1.77774e-005
8.21000e-001 1.24265e-005
8.21500e-001 8.35033e-006
8.22000e-001 6.77372e-006
8.22500e-001 7.02894e-006
8.23000e-001 9.88809e-006
8.23500e-001 1.44478e-005
8.24000e-001 2.02393e-005
8.24500e-001 2.68169e-005
8.25000e-001 3.19769e-005
8.25500e-001 3.58141e-005
8.26000e-001 3.74164e-005
8.26500e-001 3.63756e-005
8.27000e-001 3.51576e-005
8.27500e-001 3.30825e-005
8.28000e-001 2.88976e-005
8.28500e-001 2.44311e-005
8.29000e-001 2.35548e-005
8.29500e-001 2.26255e-005
8.30000e-001 1.97293e-005
8.30500e-001 1.58217e-005
8.31000e-001 8.88095e-006
8.31500e-001 -1.52151e-007
8.32000e-001 -9.03780e-006
8.32500e-001 -1.49785e-005
8.33000e-001 -1.97468e-005
8.33500e-001 -2.57578e-005
8.34000e-001 -3.11532e-005
8.34500e-001 -3.22571e-005
8.35000e-001 -2.82776e-005
8.35500e-001 -2.16994e-005
8.36000e-001 -1.15730e-005
8.36500e-001 9.78262e-007
8.37000e-001 1.15610e-005
8.37500e-001 2.05510e-005
8.38000e-001 3.09646e-005
8.38500e-001 4.16328e-005
8.39000e-001 5.00742e-005
8.39500e-001 5.50216e-005
8.40000e-001 5.60967e-005
8.40500e-001 5.42676e-005
8.41000e-001 4.85049e-005
8.41500e-001 3.80247e-005
8.42000e-001 2.61019e-005
8.42500e-001 1.69042e-005
8.43000e-001 1.07623e-005
8.43500e-001 7.47034e-006
8.44000e-001 8.18449e-006
8.44500e-001 9.17515e-006
8.45000e-001 7.82494e-006
8.45500e-001 5.53836e-006
8.46000e-001 4.66108e-006
8.46500e-001 4.70913e-006
8.47000e-001 6.09352e-006
8.47500e-001 6.02243e-006
8.48000e-001 1.83007e-006
8.48500e-001 -2.57976e-006
8.49000e-001 -3.52260e-006
8.49500e-001 -1.39939e-006
8.50000e-001 1.83295e-006
8.50500e-001 3.63803e-006
8.51000e-001 5.04986e-006
8.51500e-001 7.28522e-006
8.52000e-001 7.30568e-006
8.52500e-001 5.46012e-006
8.53000e-001 6.84764e-006
8.53500e-001 1.14880e-005
8.54000e-001 1.58941e-005
8.54500e-001 1.75129e-005
8.55000e-001 1.32229e-005
8.55500e-001 6.40184e-006
8.56000e-001 4.75241e-007
8.56500e-001 -5.80604e-006
8.57000e-001 -1.30386e-005
8.57500e-001 -1.95440e-005
8.58000e-001 -2.03728e-005
8.58500e-001 -1.37022e-005
8.59000e-001 1.50995e-007
8.59500e-001 1.91594e-005
8.60000e-001 3.73797e-005
8.60500e-001 5.07640e-005
8.61000e-001 5.85327e-005
8.61500e-001 5.85021e-005
8.62000e-001 5.19113e-005
8.62500e-001 4.47891e-005
8.63000e-001 4.01544e-005
8.63500e-001 3.80984e-005
8.64000e-001 3.74275e-005
8.64500e-001 3.49791e-005
8.65000e-001 3.06621e-005
8.65500e-001 2.55149e-005
8.66000e-001 1.90428e-005
8.66500e-001 1.20329e-005
8.67000e-001 6.02633e-006
8.67500e-001 1.02414e-006
8.68000e-001 -4.31476e-006
8.68500e-001 -1.06204e-005
8.69000e-001 -1.70546e-005
8.69500e-001 -1.92120e-005
8.70000e-001 -1.89759e-005
8.70500e-001 -1.73989e-005
8.71000e-001 -1.41369e-005
8.71500e-001 -9.77875e-006
8.72000e-001 -5.73138e-006
8.72500e-001 1.00203e-006
8.73000e-001 8.33731e-006
8.73500e-001 1.50081e-005
8.74000e-001 2.05687e-005
8.74500e-001 2.49588e-005
8.75000e-001 2.55669e-005
8.75500e-001 1.83360e-005
8.76000e-001 8.34926e-006
8.76500e-001 8.53048e-009
8.77000e-001 -7.71813e-006
8.77500e-001 -1.22641e-005
8.78000e-001 -1.06485e-005
8.78500e-001 -5.42117e-006
8.79000e-001 3.87737e-007
8.79500e-001 5.74945e-006
8.80000e-001 9.67777e-006
8.80500e-001 1.25501e-005
8.81000e-001 1.46663e-005
8.81500e-001 1.45655e-005
8.82000e-001 1.27907e-005
8.82500e-001 1.12286e-005
8.83000e-001 8.97555e-006
8.83500e-001 3.84833e-006
8.84000e-001 -4.17540e-006
8.84500e-001 -7.99284e-006
8.85000e-001 -7.02664e-006
8.85500e-001 -4.23723e-006
8.86000e-001 1.40852e-007
8.86500e-001 7.06645e-006
8.87000e-001 1.82098e-005
8.87500e-001 3.04130e-005
8.88000e-001 3.95342e-005
8.88500e-001 4.32790e-005
8.89000e-001 4.39212e-005
8.89500e-001 4.19601e-005
8.90000e-001 3.78444e-005
8.90500e-001 3.14469e-005
8.91000e-001 2.13658e-005
8.91500e-001 9.62097e-006
8.92000e-001 3.99660e-007
8.92500e-001 -6.32992e-006
8.93000e-001 -1.06240e-005
8.93500e-001 -9.58118e-006
8.94000e-001 -3.19620e-006
8.94500e-001 5.83982e-006
8.95000e-001 1.36526e-005
8.95500e-001 1.83323e-005
8.96000e-001 2.15904e-005
8.96500e-001 2.27335e-005
8.97000e-001 2.10955e-005
8.97500e-001 1.61393e-005
8.98000e-001 1.17837e-005
8.98500e-001 7.05442e-006
8.99000e-001 1.14896e-006
8.99500e-001 -7.16546e-006
9.00000e-001 -1.46808e-005
9.00500e-001 -1.71246e-005
9.01000e-001 -1.09506e-005
9.01500e-001 4.21185e-006
9.02000e-001 2.66740e-005
9.02500e-001 5.25836e-005
9.03000e-001 7.55953e-005
9.03500e-001 9.06078e-005
9.04000e-001 9.63788e-005
9.04500e-001 9.23580e-005
9.05000e-001 8.13402e-005
9.05500e-001 6.72210e-005
9.06000e-001 5.14439e-005
9.06500e-001 3.52183e-005
9.07000e-001 2.13018e-005
9.07500e-001 1.24280e-005
9.08000e-001 6.51302e-006
9.08500e-001 3.95570e-007
9.09000e-001 -3.21305e-006
9.09500e-001 -1.29168e-006
9.10000e-001 3.83068e-006
9.10500e-001 9.76677e-006
9.11000e-001 1.61798e-005
9.11500e-001 2.14290e-005
9.12000e-001 2.21616e-005
9.12500e-001 1.71234e-005
9.13000e-001 8.66260e-006
9.13500e-001 -6.76361e-007
9.14000e-001 -7.30416e-006
9.14500e-001 -1.32358e-005
9.15000e-001 -2.15729e-005
9.15500e-001 -3.05361e-005
9.16000e-001 -3.68478e-005
9.16500e-001 -4.07073e-005
9.17000e-001 -4.15775e-005
9.17500e-001 -4.00176e-005
9.18000e-001 -3.79145e-005
9.18500e-001 -3.65015e-005
9.19000e-001 -3.51696e-005
9.19500e-001 -3.28420e-005
9.20000e-001 -2.97113e-005
9.20500e-001 -2.74998e-005
9.21000e-001 -2.71793e-005
9.21500e-001 -2.73287e-005
9.22000e-001 -2.82045e-005
9.22500e-001 -3.20652e-005
9.23000e-001 -3.84823e-005
9.23500e-001 -4.17688e-005
9.24000e-001 -4.07739e-005
9.24500e-001 -3.74638e-005
9.25000e-001 -3.46892e-005
9.25500e-001 -3.33597e-005
9.26000e-001 -2.84643e-005
9.26500e-001 -1.90360e-005
9.27000e-001 -6.93166e-006
9.27500e-001 5.70163e-006
9.28000e-001 1.76602e-005
9.28500e-001 2.68971e-005
9.29000e-001 2.74774e-005
9.29500e-001 1.81744e-005
9.30000e-001 8.33891e-006
9.30500e-001 6.59197e-006
9.31000e-001 1.33281e-005
9.31500e-001 2.43683e-005
9.32000e-001 3.79355e-005
9.32500e-001 5.22994e-005
9.33000e-001 6.26135e-005
9.33500e-001 6.75912e-005
9.34000e-001 6.90551e-005
9.34500e-001 6.84076e-005
9.35000e-001 6.71896e-005
9.35500e-001 6.65394e-005
9.36000e-001 6.81162e-005
9.36500e-001 6.87718e-005
9.37000e-001 6.58420e-005
9.37500e-001 6.24031e-005
9.38000e-001 5.92515e-005
9.38500e-001 5.37904e-005
9.39000e-001 4.54700e-005
9.39500e-001 3.56479e-005
9.40000e-001 2.83234e-005
9.40500e-001 2.69168e-005
9.41000e-001 3.16555e-005
9.41500e-001 3.70272e-005
9.42000e-001 3.69830e-005
9.42500e-001 3.54130e-005
9.43000e-001 3.53774e-005
9.43500e-001 3.47353e-005
9.44000e-001 3.35791e-005
9.44500e-001 3.60654e-005
9.45000e-001 4.08441e-005
9.45500e-001 3.78611e-005
9.46000e-001 2.29625e-005
9.46500e-001 -5.26661e-007
9.47000e-001 -2.78950e-005
9.47500e-001 -5.28347e-005
9.48000e-001 -7.12728e-005
9.48500e-001 -7.96631e-005
9.49000e-001 -7.30986e-005
9.49500e-001 -5.13812e-005
9.50000e-001 -2.09061e-005
9.50500e-001 8.68960e-006
9.51000e-001 3.32270e-005
9.51500e-001 5.34682e-005
9.52000e-001 6.35777e-005
9.52500e-001 5.91635e-005
9.53000e-001 4.93029e-005
9.53500e-001 4.51791e-005
9.54000e-001 4.54528e-005
9.54500e-001 4.48572e-005
9.55000e-001 4.18626e-005
9.55500e-001 3.69631e-005
9.56000e-001 3.06984e-005
9.56500e-001 2.46409e-005
9.57000e-001 2.00384e-005
9.57500e-001 1.81868e-005
9.58000e-001 1.77137e-005
9.58500e-001 1.47130e-005
9.59000e-001 6.59666e-006
9.59500e-001 -4.98790e-006
9.60000e-001 -1.50239e-005
9.60500e-001 -2.15153e-005
9.61000e-001 -2.61729e-005
9.61500e-001 -2.76268e-005
9.62000e-001 -2.43905e-005
9.62500e-001 -1.84644e-005
9.63000e-001 -1.13777e-005
9.63500e-001 -5.04923e-006
9.64000e-001 2.86526e-006
9.64500e-001 1.20551e-005
9.65000e-001 1.92841e-005
9.65500e-001 2.52945e-005
9.66000e-001 3.17254e-005
9.66500e-001 3.85409e-005
9.67000e-001 3.61175e-005
9.67500e-001 1.65001e-005
9.68000e-001 -1.19701e-005
9.68500e-001 -3.53223e-005
9.69000e-001 -5.01650e-005
9.69500e-001 -5.77359e-005
9.70000e-001 -5.62401e-005
9.70500e-001 -4.71655e-005
9.71000e-001 -3.28312e-005
9.71500e-001 -1.89667e-005
9.72000e-001 -1.05871e-005
9.72500e-001 -6.30920e-006
9.73000e-001 -1.84511e-006
9.73500e-001 1.28334e-006
9.74000e-001 -2.10679e-006
9.74500e-001 -1.03691e-005
9.75000e-001 -1.62560e-005
9.75500e-001 -1.75971e-005
9.76000e-001 -1.75416e-005
9.76500e-001 -1.64976e-005
9.77000e-001 -1.55469e-005
9.77500e-001 -1.24657e-005
9.78000e-001 -4.76965e-006
9.78500e-001 5.66261e-006
9.79000e-001 1.52590e-005
9.79500e-001 2.19195e-005
9.80000e-001 2.09678e-005
9.80500e-001 1.32925e-005
9.81000e-001 4.39436e-006
9.81500e-001 -4.07515e-006
9.82000e-001 -1.19512e-005
9.82500e-001 -1.36154e-005
9.83000e-001 -7.02810e-006
9.83500e-001 1.59821e-006
9.84000e-001 9.25296e-006
9.84500e-001 1.91042e-005
9.85000e-001 3.54481e-005
9.85500e-001 5.51366e-005
9.86000e-001 6.94343e-005
9.86500e-001 7.70539e-005
9.87000e-001 8.14718e-005
9.87500e-001 8.21826e-005
9.88000e-001 7.44559e-005
9.88500e-001 5.76272e-005
9.89000e-001 3.87794e-005
9.89500e-001 2.14077e-005
9.90000e-001 3.77929e-006
9.90500e-001 -1.28773e-005
9.91000e-001 -2.10655e-005
9.91500e-001 -1.88439e-005
9.92000e-001 -1.00517e-005
9.92500e-001 -3.36367e-007
9.93000e-001 5.61105e-006
9.93500e-001 8.22414e-006
9.94000e-001 1.12124e-005
9.94500e-001 1.59774e-005
9.95000e-001 1.91589e-005
9.95500e-001 1.87139e-005
9.96000e-001 1.52289e-005
9.96500e-001 1.16314e-005
9.97000e-001 7.89278e-006
9.97500e-001 1.12548e-006
9.98000e-001 -8.73390e-006
9.98500e-001 -1.85922e-005
9.99000e-001 -2.47788e-005
9.99500e-001 -2.41251e-005
1.00000e+000 -1.83572e-005
1.00050e+000 -1.20166e-005
1.00100e+000 -6.80108e-006
1.00150e+000 -1.56131e-006
1.00200e+000 6.95096e-006
1.00250e+000 2.09527e-005
1.00300e+000 4.01356e-005
1.00350e+000 6.26283e-005
1.00400e+000 8.27476e-005
1.00450e+000 9.44872e-005
1.00500e+000 9.49514e-005
1.00550e+000 8.65564e-005
1.00600e+000 7.10250e-005
1.00650e+000 5.37216e-005
1.00700e+000 4.09510e-005
1.00750e+000 3.39513e-005
1.00800e+000 3.32304e-005
1.00850e+000 3.45819e-005
1.00900e+000 3.30327e-005
1.00950e+000 2.04919e-005
1.01000e+000 -3.64657e-006
1.01050e+000 -2.96570e-005
1.01100e+000 -5.01758e-005
1.01150e+000 -6.29093e-005
1.01200e+000 -7.04507e-005
1.01250e+000 -7.58026e-005
1.01300e+000 -7.98097e-005
1.01350e+000 -8.06201e-005
1.01400e+000 -7.68184e-005
1.01450e+000 -6.90623e-005
1.01500e+000 -5.57773e-005
1.01550e+000 -3.41391e-005
1.01600e+000 -5.20033e-006
1.01650e+000 2.51811e-005
1.01700e+000 4.91195e-005
1.01750e+000 6.19705e-005
1.01800e+000 6.78549e-005
1.01850e+000 7.17965e-005
1.01900e+000 7.56679e-005
1.01950e+000 7.75369e-005
1.02000e+000 7.64819e-005
1.02050e+000 7.39260e-005
1.02100e+000 7.19085e-005
1.02150e+000 6.91651e-005
1.02200e+000 6.44877e-005
1.02250e+000 5.56607e-005
1.02300e+000 4.28694e-005
1.02350e+000 3.06538e-005
1.02400e+000 2.30580e-005
1.02450e+000 1.95844e-005
1.02500e+000 1.57496e-005
1.02550e+000 9.97310e-006
1.02600e+000 2.97717e-006
1.02650e+000 -5.55169e-006
1.02700e+000 -1.23687e-005
1.02750e+000 -1.76629e-005
1.02800e+000 -2.58111e-005
1.02850e+000 -3.64576e-005
1.02900e+000 -4.62764e-005
1.02950e+000 -5.22284e-005
1.03000e+000 -5.51488e-005
1.03050e+000 -5.74735e-005
1.03100e+000 -5.82850e-005
1.03150e+000 -5.74674e-005
1.03200e+000 -5.72024e-005
1.03250e+000 -5.90685e-005
1.03300e+000 -6.03011e-005
1.03350e+000 -6.08451e-005
1.03400e+000 -6.46818e-005
1.03450e+000 -6.63632e-005
1.03500e+000 -5.49610e-005
1.03550e+000 -3.02865e-005
1.03600e+000 -1.36116e-006
1.03650e+000 2.86478e-005
1.03700e+000 5.82269e-005
1.03750e+000 8.31474e-005
1.03800e+000 1.00163e-004
1.03850e+000 1.07012e-004
1.03900e+000 1.04816e-004
1.03950e+000 9.80287e-005
1.04000e+000 9.24123e-005
1.04050e+000 8.75797e-005
1.04100e+000 7.60533e-005
1.04150e+000 5.54256e-005
1.04200e+000 2.79896e-005
1.04250e+000 1.47536e-007
1.04300e+000 -1.76365e-005
1.04350e+000 -2.60171e-005
1.04400e+000 -3.31603e-005
1.04450e+000 -4.08954e-005
1.04500e+000 -4.62036e-005
1.04550e+000 -5.01495e-005
1.04600e+000 -4.88704e-005
1.04650e+000 -3.83018e-005
1.04700e+000 -2.08926e-005
1.04750e+000 -3.49839e-006
1.04800e+000 4.86734e-006
1.04850e+000 5.22916e-006
1.04900e+000 2.61767e-006
1.04950e+000 1.84049e-006
1.05000e+000 3.60679e-006
1.05050e+000 1.00431e-005
1.05100e+000 2.01058e-005
1.05150e+000 2.78625e-005
1.05200e+000 3.46673e-005
1.05250e+000 4.24981e-005
1.05300e+000 4.63182e-005
1.05350e+000 4.33287e-005
1.05400e+000 3.62406e-005
1.05450e+000 2.66523e-005
1.05500e+000 1.84649e-005
1.05550e+000 1.77213e-005
1.05600e+000 2.62854e-005
1.05650e+000 4.07701e-005
1.05700e+000 5.33392e-005
1.05750e+000 6.09792e-005
1.05800e+000 6.52785e-005
1.05850e+000 6.55155e-005
1.05900e+000 5.85191e-005
1.05950e+000 4.22522e-005
1.06000e+000 1.75470e-005
1.06050e+000 -3.71500e-006
1.06100e+000 -1.18226e-005
1.06150e+000 -1.32823e-005
1.06200e+000 -1.34579e-005
1.06250e+000 -1.00879e-005
1.06300e+000 -9.58158e-007
1.06350e+000 1.53218e-005
1.06400e+000 3.40524e-005
1.06450e+000 4.55132e-005
1.06500e+000 4.43846e-005
1.06550e+000 3.47803e-005
1.06600e+000 2.28461e-005
1.06650e+000 1.16372e-005
1.06700e+000 6.23463e-006
1.06750e+000 1.05692e-005
1.06800e+000 2.08478e-005
1.06850e+000 3.10909e-005
1.06900e+000 3.91337e-005
1.06950e+000 4.59009e-005
1.07000e+000 5.49863e-005
1.07050e+000 6.86331e-005
1.07100e+000 8.40944e-005
1.07150e+000 9.65390e-005
1.07200e+000 1.00563e-004
1.07250e+000 9.69155e-005
1.07300e+000 8.48697e-005
1.07350e+000 6.65079e-005
1.07400e+000 4.75947e-005
1.07450e+000 2.87383e-005
1.07500e+000 1.21055e-005
1.07550e+000 -1.08918e-006
1.07600e+000 -8.40671e-006
1.07650e+000 -1.05873e-005
1.07700e+000 -1.10872e-005
1.07750e+000 -1.27812e-005
1.07800e+000 -1.80378e-005
1.07850e+000 -2.71723e-005
1.07900e+000 -3.38001e-005
1.07950e+000 -3.56500e-005
1.08000e+000 -3.74761e-005
1.08050e+000 -4.26860e-005
1.08100e+000 -4.82318e-005
1.08150e+000 -4.95162e-005
1.08200e+000 -4.57149e-005
1.08250e+000 -3.99131e-005
1.08300e+000 -3.74888e-005
1.08350e+000 -4.24458e-005
1.08400e+000 -5.52151e-005
1.08450e+000 -7.14996e-005
1.08500e+000 -8.66297e-005
1.08550e+000 -9.82866e-005
1.08600e+000 -1.03045e-004
1.08650e+000 -9.59730e-005
1.08700e+000 -7.41519e-005
1.08750e+000 -4.48467e-005
1.08800e+000 -2.06036e-005
1.08850e+000 -8.22404e-006
1.08900e+000 -1.16906e-005
1.08950e+000 -2.96866e-005
1.09000e+000 -5.06348e-005
1.09050e+000 -6.04856e-005
1.09100e+000 -5.66918e-005
1.09150e+000 -5.33322e-005
1.09200e+000 -6.44497e-005
1.09250e+000 -8.08243e-005
1.09300e+000 -9.16408e-005
1.09350e+000 -9.88870e-005
1.09400e+000 -1.03640e-004
1.09450e+000 -1.04088e-004
1.09500e+000 -9.73500e-005
1.09550e+000 -7.72907e-005
1.09600e+000 -4.29679e-005
1.09650e+000 -4.69926e-006
1.09700e+000 2.81660e-005
1.09750e+000 5.14332e-005
1.09800e+000 6.29721e-005
1.09850e+000 6.93368e-005
1.09900e+000 7.17888e-005
1.09950e+000 7.03031e-005
1.10000e+000 7.61501e-005
1.10050e+000 9.49731e-005
1.10100e+000 1.18203e-004
1.10150e+000 1.40691e-004
1.10200e+000 1.59467e-004
1.10250e+000 1.73317e-004
1.10300e+000 1.81626e-004
1.10350e+000 1.80177e-004
1.10400e+000 1.66254e-004
1.10450e+000 1.41322e-004
1.10500e+000 1.08144e-004
1.10550e+000 7.09134e-005
1.10600e+000 4.36401e-005
1.10650e+000 3.90998e-005
1.10700e+000 5.39129e-005
1.10750e+000 7.83788e-005
1.10800e+000 1.08626e-004
1.10850e+000 1.40466e-004
1.10900e+000 1.68470e-004
1.10950e+000 1.92009e-004
1.11000e+000 2.11820e-004
1.11050e+000 2.21069e-004
1.11100e+000 2.09199e-004
1.11150e+000 1.78123e-004
1.11200e+000 1.36218e-004
1.11250e+000 9.05605e-005
1.11300e+000 4.94810e-005
1.11350e+000 1.55022e-005
1.11400e+000 -1.30044e-005
1.11450e+000 -3.64639e-005
1.11500e+000 -5.31547e-005
1.11550e+000 -6.16296e-005
1.11600e+000 -6.52043e-005
1.11650e+000 -6.26346e-005
1.11700e+000 -5.15730e-005
1.11750e+000 -3.44078e-005
1.11800e+000 -1.56964e-005
1.11850e+000 -5.07999e-007
1.11900e+000 3.47085e-006
1.11950e+000 -8.26427e-006
1.12000e+000 -3.29284e-005
1.12050e+000 -5.92972e-005
1.12100e+000 -7.57934e-005
1.12150e+000 -8.04593e-005
1.12200e+000 -7.99116e-005
1.12250e+000 -7.66131e-005
1.12300e+000 -6.93961e-005
1.12350e+000 -6.34337e-005
1.12400e+000 -6.42640e-005
1.12450e+000 -7.09158e-005
1.12500e+000 -7.90707e-005
1.12550e+000 -8.63877e-005
1.12600e+000 -8.93131e-005
1.12650e+000 -8.76271e-005
1.12700e+000 -8.44569e-005
1.12750e+000 -7.60217e-005
1.12800e+000 -5.72890e-005
1.12850e+000 -2.76054e-005
1.12900e+000 -6.90271e-007
1.12950e+000 7.64998e-006
1.13000e+000 -3.83940e-006
1.13050e+000 -2.60295e-005
1.13100e+000 -5.52560e-005
1.13150e+000 -8.88876e-005
1.13200e+000 -1.14349e-004
1.13250e+000 -1.15081e-004
1.13300e+000 -7.99318e-005
1.13350e+000 -1.33630e-005
1.13400e+000 6.74400e-005
1.13450e+000 1.40650e-004
1.13500e+000 1.93646e-004
1.13550e+000 2.19510e-004
1.13600e+000 2.13516e-004
1.13650e+000 1.83974e-004
1.13700e+000 1.46648e-004
1.13750e+000 1.12122e-004
1.13800e+000 8.08500e-005
1.13850e+000 4.91459e-005
1.13900e+000 1.71937e-005
1.13950e+000 -1.12017e-005
1.14000e+000 -3.07596e-005
1.14050e+000 -4.14903e-005
1.14100e+000 -3.73587e-005
1.14150e+000 -1.60017e-005
1.14200e+000 1.39989e-005
1.14250e+000 3.97276e-005
1.14300e+000 5.35534e-005
1.14350e+000 4.76911e-005
1.14400e+000 1.73529e-005
1.14450e+000 -2.97616e-005
1.14500e+000 -7.95997e-005
1.14550e+000 -1.22232e-004
1.14600e+000 -1.55533e-004
1.14650e+000 -1.74227e-004
1.14700e+000 -1.75513e-004
1.14750e+000 -1.63992e-004
1.14800e+000 -1.42958e-004
1.14850e+000 -1.17738e-004
1.14900e+000 -9.40061e-005
1.14950e+000 -6.96816e-005
1.15000e+000 -4.56979e-005
1.15050e+000 -3.02830e-005
1.15100e+000 -2.59942e-005
1.15150e+000 -3.06455e-005
1.15200e+000 -4.04168e-005
1.15250e+000 -4.33571e-005
1.15300e+000 -3.25940e-005
1.15350e+000 -1.59015e-005
1.15400e+000 3.99905e-006
1.15450e+000 1.59598e-005
1.15500e+000 1.20909e-005
1.15550e+000 2.90328e-006
1.15600e+000 -8.77703e-006
1.15650e+000 -2.34619e-005
1.15700e+000 -3.61388e-005
1.15750e+000 -3.28643e-005
1.15800e+000 5.23633e-006
1.15850e+000 7.60699e-005
1.15900e+000 1.55700e-004
1.15950e+000 2.23069e-004
1.16000e+000 2.68186e-004
1.16050e+000 2.83171e-004
1.16100e+000 2.68082e-004
1.16150e+000 2.31384e-004
1.16200e+000 1.83397e-004
1.16250e+000 1.34455e-004
1.16300e+000 9.60686e-005
1.16350e+000 7.52309e-005
1.16400e+000 6.63914e-005
1.16450e+000 5.77444e-005
1.16500e+000 4.26253e-005
1.16550e+000 2.48757e-005
1.16600e+000 9.21760e-006
1.16650e+000 -7.81460e-006
1.16700e+000 -2.38795e-005
1.16750e+000 -2.71131e-005
1.16800e+000 -1.00337e-005
1.16850e+000 2.72184e-005
1.16900e+000 7.80727e-005
1.16950e+000 1.34125e-004
1.17000e+000 1.77669e-004
1.17050e+000 1.95656e-004
1.17100e+000 1.90069e-004
1.17150e+000 1.65793e-004
1.17200e+000 1.17438e-004
1.17250e+000 4.19124e-005
1.17300e+000 -4.05129e-005
1.17350e+000 -1.08946e-004
1.17400e+000 -1.62592e-004
1.17450e+000 -2.05454e-004
1.17500e+000 -2.34850e-004
1.17550e+000 -2.46801e-004
1.17600e+000 -2.35361e-004
1.17650e+000 -1.97123e-004
1.17700e+000 -1.43607e-004
1.17750e+000 -8.88781e-005
1.17800e+000 -3.50236e-005
1.17850e+000 1.55360e-005
1.17900e+000 5.68733e-005
1.17950e+000 8.94885e-005
1.18000e+000 1.17152e-004
1.18050e+000 1.35337e-004
1.18100e+000 1.35473e-004
1.18150e+000 1.19303e-004
1.18200e+000 9.51330e-005
1.18250e+000 7.67261e-005
1.18300e+000 7.51007e-005
1.18350e+000 9.54013e-005
1.18400e+000 1.36069e-004
1.18450e+000 1.89605e-004
1.18500e+000 2.44290e-004
1.18550e+000 2.79737e-004
1.18600e+000 2.74711e-004
1.18650e+000 2.34823e-004
1.18700e+000 1.81987e-004
1.18750e+000 1.30885e-004
1.18800e+000 7.84195e-005
1.18850e+000 2.25819e-005
1.18900e+000 -2.52421e-005
1.18950e+000 -6.07759e-005
1.19000e+000 -8.95446e-005
1.19050e+000 -1.13511e-004
1.19100e+000 -1.33931e-004
1.19150e+000 -1.53062e-004
1.19200e+000 -1.69287e-004
1.19250e+000 -1.79981e-004
1.19300e+000 -1.81286e-004
1.19350e+000 -1.65270e-004
1.19400e+000 -1.36613e-004
1.19450e+000 -1.05755e-004
1.19500e+000 -7.55866e-005
1.19550e+000 -4.66327e-005
1.19600e+000 -2.40993e-005
1.19650e+000 -1.75622e-005
1.19700e+000 -3.01778e-005
1.19750e+000 -5.26381e-005
1.19800e+000 -7.82421e-005
1.19850e+000 -1.04282e-004
1.19900e+000 -1.29973e-004
1.19950e+000 -1.63290e-004
1.20000e+000 -2.06451e-004
1.20050e+000 -2.39555e-004
1.20100e+000 -2.48263e-004
1.20150e+000 -2.38760e-004
1.20200e+000 -2.19518e-004
1.20250e+000 -1.93376e-004
1.20300e+000 -1.61719e-004
1.20350e+000 -1.24174e-004
1.20400e+000 -7.67272e-005
1.20450e+000 -1.84192e-005
1.20500e+000 4.42820e-005
1.20550e+000 1.03213e-004
1.20600e+000 1.48675e-004
1.20650e+000 1.74246e-004
1.20700e+000 1.83212e-004
1.20750e+000 1.75176e-004
1.20800e+000 1.50498e-004
1.20850e+000 1.21639e-004
1.20900e+000 1.03161e-004
1.20950e+000 1.00825e-004
1.21000e+000 1.15354e-004
1.21050e+000 1.33463e-004
1.21100e+000 1.39082e-004
1.21150e+000 1.28703e-004
1.21200e+000 1.10025e-004
1.21250e+000 8.62746e-005
1.21300e+000 5.42146e-005
1.21350e+000 1.18668e-005
1.21400e+000 -3.64831e-005
1.21450e+000 -8.50548e-005
1.21500e+000 -1.21978e-004
1.21550e+000 -1.33720e-004
1.21600e+000 -1.16573e-004
1.21650e+000 -7.75948e-005
1.21700e+000 -3.03885e-005
1.21750e+000 1.37519e-005
1.21800e+000 4.75537e-005
1.21850e+000 6.64928e-005
1.21900e+000 7.22209e-005
1.21950e+000 6.79302e-005
1.22000e+000 5.71488e-005
1.22050e+000 4.35762e-005
1.22100e+000 3.43817e-005
1.22150e+000 3.80852e-005
1.22200e+000 5.73896e-005
1.22250e+000 8.49853e-005
1.22300e+000 1.09552e-004
1.22350e+000 1.29587e-004
1.22400e+000 1.46053e-004
1.22450e+000 1.57712e-004
1.22500e+000 1.62324e-004
1.22550e+000 1.56107e-004
1.22600e+000 1.41199e-004
1.22650e+000 1.23590e-004
1.22700e+000 1.07285e-004
1.22750e+000 9.34270e-005
1.22800e+000 8.48641e-005
1.22850e+000 7.80922e-005
1.22900e+000 6.92911e-005
1.22950e+000 5.78839e-005
1.23000e+000 4.09985e-005
1.23050e+000 1.92008e-005
1.23100e+000 -4.58329e-006
1.23150e+000 -2.90438e-005
1.23200e+000 -5.44307e-005
1.23250e+000 -8.04104e-005
1.23300e+000 -9.97223e-005
1.23350e+000 -1.06557e-004
1.23400e+000 -1.01314e-004
1.23450e+000 -8.95448e-005
1.23500e+000 -7.81976e-005
1.23550e+000 -6.60764e-005
1.23600e+000 -5.32922e-005
1.23650e+000 -4.85737e-005
1.23700e+000 -5.72077e-005
1.23750e+000 -7.09192e-005
1.23800e+000 -7.81357e-005
1.23850e+000 -8.02784e-005
1.23900e+000 -7.98763e-005
1.23950e+000 -7.61020e-005
1.24000e+000 -6.77191e-005
1.24050e+000 -5.75627e-005
1.24100e+000 -5.10039e-005
1.24150e+000 -4.95257e-005
1.24200e+000 -4.70349e-005
1.24250e+000 -3.45675e-005
1.24300e+000 -7.41827e-006
1.24350e+000 2.78734e-005
1.24400e+000 6.02974e-005
1.24450e+000 8.07788e-005
1.24500e+000 8.13290e-005
1.24550e+000 5.98736e-005
1.24600e+000 2.23690e-005
1.24650e+000 -1.43589e-005
1.24700e+000 -3.17853e-005
1.24750e+000 -2.09320e-005
1.24800e+000 1.83243e-005
1.24850e+000 7.08434e-005
1.24900e+000 1.11826e-004
1.24950e+000 1.32193e-004
1.25000e+000 1.36161e-004
1.25050e+000 1.26445e-004
1.25100e+000 9.97578e-005
1.25150e+000 5.69526e-005
1.25200e+000 1.38308e-005
1.25250e+000 -1.66389e-005
1.25300e+000 -3.09360e-005
1.25350e+000 -2.77748e-005
1.25400e+000 -1.55278e-005
1.25450e+000 -8.86703e-006
1.25500e+000 -1.51732e-005
1.25550e+000 -2.49483e-005
1.25600e+000 -2.92518e-005
1.25650e+000 -3.33496e-005
1.25700e+000 -4.86722e-005
1.25750e+000 -7.47233e-005
1.25800e+000 -1.00161e-004
1.25850e+000 -1.14600e-004
1.25900e+000 -1.11496e-004
1.25950e+000 -9.54693e-005
1.26000e+000 -7.30017e-005
1.26050e+000 -4.40473e-005
1.26100e+000 -5.87946e-006
1.26150e+000 3.94807e-005
1.26200e+000 8.47725e-005
1.26250e+000 1.22975e-004
1.26300e+000 1.40975e-004
1.26350e+000 1.32494e-004
1.26400e+000 1.04065e-004
1.26450e+000 6.65143e-005
1.26500e+000 3.26205e-005
1.26550e+000 1.55747e-005
1.26600e+000 1.47792e-005
1.26650e+000 2.26233e-005
1.26700e+000 3.55937e-005
1.26750e+000 5.60312e-005
1.26800e+000 7.73581e-005
1.26850e+000 9.20987e-005
1.26900e+000 1.03070e-004
1.26950e+000 1.09016e-004
1.27000e+000 9.36258e-005
1.27050e+000 3.99407e-005
1.27100e+000 -3.51990e-005
1.27150e+000 -9.11114e-005
1.27200e+000 -1.08471e-004
1.27250e+000 -8.94935e-005
1.27300e+000 -4.15450e-005
1.27350e+000 2.03213e-005
1.27400e+000 7.75701e-005
1.27450e+000 1.19727e-004
1.27500e+000 1.41897e-004
1.27550e+000 1.41970e-004
1.27600e+000 1.17176e-004
1.27650e+000 7.62435e-005
1.27700e+000 4.31252e-005
1.27750e+000 2.85563e-005
1.27800e+000 3.00041e-005
1.27850e+000 4.86889e-005
1.27900e+000 8.03491e-005
1.27950e+000 1.16987e-004
1.28000e+000 1.51341e-004
1.28050e+000 1.75411e-004
1.28100e+000 1.82541e-004
1.28150e+000 1.74452e-004
1.28200e+000 1.53911e-004
1.28250e+000 1.17326e-004
1.28300e+000 6.64780e-005
1.28350e+000 1.27813e-005
1.28400e+000 -3.38416e-005
1.28450e+000 -6.52166e-005
1.28500e+000 -7.85531e-005
1.28550e+000 -8.02078e-005
1.28600e+000 -7.41683e-005
1.28650e+000 -6.54111e-005
1.28700e+000 -6.67858e-005
1.28750e+000 -8.51184e-005
1.28800e+000 -1.12046e-004
1.28850e+000 -1.36955e-004
1.28900e+000 -1.56221e-004
1.28950e+000 -1.70677e-004
1.29000e+000 -1.83249e-004
1.29050e+000 -1.99204e-004
1.29100e+000 -2.04781e-004
1.29150e+000 -1.87566e-004
1.29200e+000 -1.41682e-004
1.29250e+000 -6.33519e-005
1.29300e+000 3.72494e-005
1.29350e+000 1.44217e-004
1.29400e+000 2.42348e-004
1.29450e+000 3.14892e-004
1.29500e+000 3.58338e-004
1.29550e+000 3.73400e-004
1.29600e+000 3.60205e-004
1.29650e+000 3.16471e-004
1.29700e+000 2.46562e-004
1.29750e+000 1.69226e-004
1.29800e+000 1.03047e-004
1.29850e+000 5.38353e-005
1.29900e+000 1.61646e-005
1.29950e+000 -1.78745e-005
1.30000e+000 -5.21067e-005
1.30050e+000 -8.77232e-005
1.30100e+000 -1.30891e-004
1.30150e+000 -1.82691e-004
1.30200e+000 -2.28133e-004
1.30250e+000 -2.57871e-004
1.30300e+000 -2.79428e-004
1.30350e+000 -2.96089e-004
1.30400e+000 -3.03529e-004
1.30450e+000 -3.00762e-004
1.30500e+000 -2.88582e-004
1.30550e+000 -2.68042e-004
1.30600e+000 -2.40146e-004
1.30650e+000 -2.06065e-004
1.30700e+000 -1.69641e-004
1.30750e+000 -1.33016e-004
1.30800e+000 -9.26900e-005
1.30850e+000 -5.06883e-005
1.30900e+000 -2.39253e-005
1.30950e+000 -2.09910e-005
1.31000e+000 -2.41438e-005
1.31050e+000 -9.36747e-006
1.31100e+000 3.15725e-005
1.31150e+000 9.39656e-005
1.31200e+000 1.63488e-004
1.31250e+000 2.24516e-004
1.31300e+000 2.69038e-004
1.31350e+000 2.87414e-004
1.31400e+000 2.73648e-004
1.31450e+000 2.34429e-004
1.31500e+000 1.83565e-004
1.31550e+000 1.30950e-004
1.31600e+000 8.42904e-005
1.31650e+000 5.25359e-005
1.31700e+000 4.87396e-005
1.31750e+000 6.65209e-005
1.31800e+000 7.95438e-005
1.31850e+000 7.02907e-005
1.31900e+000 4.31190e-005
1.31950e+000 3.04962e-006
1.32000e+000 -4.48440e-005
1.32050e+000 -9.07603e-005
1.32100e+000 -1.23292e-004
1.32150e+000 -1.40224e-004
1.32200e+000 -1.40606e-004
1.32250e+000 -1.21277e-004
1.32300e+000 -8.12701e-005
1.32350e+000 -2.27884e-005
1.32400e+000 3.80848e-005
1.32450e+000 8.05885e-005
1.32500e+000 1.03222e-004
1.32550e+000 1.14504e-004
1.32600e+000 1.13514e-004
1.32650e+000 1.01747e-004
1.32700e+000 9.35971e-005
1.32750e+000 9.59526e-005
1.32800e+000 9.86320e-005
1.32850e+000 9.01812e-005
1.32900e+000 7.26617e-005
1.32950e+000 6.01150e-005
1.33000e+000 5.21014e-005
1.33050e+000 4.79970e-005
1.33100e+000 4.83304e-005
1.33150e+000 5.10337e-005
1.33200e+000 4.81680e-005
1.33250e+000 3.55164e-005
1.33300e+000 1.25864e-005
1.33350e+000 -2.21611e-005
1.33400e+000 -6.26884e-005
1.33450e+000 -1.06883e-004
1.33500e+000 -1.53954e-004
1.33550e+000 -1.95004e-004
1.33600e+000 -2.16500e-004
1.33650e+000 -2.07553e-004
1.33700e+000 -1.66492e-004
1.33750e+000 -1.07476e-004
1.33800e+000 -5.47221e-005
1.33850e+000 -1.93741e-005
1.33900e+000 4.64750e-006
1.33950e+000 2.08376e-005
1.34000e+000 2.71903e-005
1.34050e+000 2.75431e-005
1.34100e+000 2.97332e-005
1.34150e+000 3.60600e-005
1.34200e+000 4.53165e-005
1.34250e+000 5.51596e-005
1.34300e+000 6.22742e-005
1.34350e+000 7.88217e-005
1.34400e+000 1.11846e-004
1.34450e+000 1.46547e-004
1.34500e+000 1.64881e-004
1.34550e+000 1.63639e-004
1.34600e+000 1.51967e-004
1.34650e+000 1.43798e-004
1.34700e+000 1.47565e-004
1.34750e+000 1.58113e-004
1.34800e+000 1.53290e-004
1.34850e+000 1.25525e-004
1.34900e+000 8.93358e-005
1.34950e+000 6.45137e-005
1.35000e+000 5.54900e-005
1.35050e+000 5.37083e-005
1.35100e+000 5.46752e-005
1.35150e+000 5.56113e-005
1.35200e+000 4.77093e-005
1.35250e+000 2.40549e-005
1.35300e+000 -1.47155e-005
1.35350e+000 -6.15827e-005
1.35400e+000 -1.02237e-004
1.35450e+000 -1.30007e-004
1.35500e+000 -1.54286e-004
1.35550e+000 -1.77427e-004
1.35600e+000 -1.84325e-004
1.35650e+000 -1.57418e-004
1.35700e+000 -1.03617e-004
1.35750e+000 -4.70238e-005
1.35800e+000 -5.53402e-006
1.35850e+000 1.41084e-005
1.35900e+000 7.52286e-006
1.35950e+000 -1.97622e-005
1.36000e+000 -4.00722e-005
1.36050e+000 -2.79398e-005
1.36100e+000 1.84039e-005
1.36150e+000 8.96664e-005
1.36200e+000 1.62237e-004
1.36250e+000 2.03467e-004
1.36300e+000 1.91128e-004
1.36350e+000 1.36907e-004
1.36400e+000 8.46004e-005
1.36450e+000 5.52125e-005
1.36500e+000 3.63525e-005
1.36550e+000 2.07843e-005
1.36600e+000 7.67839e-006
1.36650e+000 -3.20111e-006
1.36700e+000 -1.00273e-005
1.36750e+000 -1.69522e-005
1.36800e+000 -2.63433e-005
1.36850e+000 -3.70611e-005
1.36900e+000 -5.23773e-005
1.36950e+000 -7.72027e-005
1.37000e+000 -1.13179e-004
1.37050e+000 -1.49964e-004
1.37100e+000 -1.73474e-004
1.37150e+000 -1.77298e-004
1.37200e+000 -1.62572e-004
1.37250e+000 -1.31017e-004
1.37300e+000 -8.73465e-005
1.37350e+000 -4.26062e-005
1.37400e+000 -7.37404e-006
1.37450e+000 5.65269e-006
1.37500e+000 -7.60418e-006
1.37550e+000 -3.07457e-005
1.37600e+000 -4.42696e-005
1.37650e+000 -3.50867e-005
1.37700e+000 -3.89336e-006
1.37750e+000 3.78163e-005
1.37800e+000 7.62228e-005
1.37850e+000 1.04516e-004
1.37900e+000 1.25073e-004
1.37950e+000 1.42743e-004
1.38000e+000 1.64143e-004
1.38050e+000 1.91575e-004
1.38100e+000 2.16717e-004
1.38150e+000 2.27306e-004
1.38200e+000 2.14579e-004
1.38250e+000 1.75329e-004
1.38300e+000 1.19931e-004
1.38350e+000 7.72016e-005
1.38400e+000 5.54961e-005
1.38450e+000 4.40590e-005
1.38500e+000 2.74515e-005
1.38550e+000 -1.25296e-005
1.38600e+000 -6.20932e-005
1.38650e+000 -9.18788e-005
1.38700e+000 -9.58492e-005
1.38750e+000 -7.97532e-005
1.38800e+000 -5.60634e-005
1.38850e+000 -4.35218e-005
1.38900e+000 -5.03089e-005
1.38950e+000 -7.17244e-005
1.39000e+000 -1.06810e-004
1.39050e+000 -1.55544e-004
1.39100e+000 -2.02955e-004
1.39150e+000 -2.21548e-004
1.39200e+000 -1.96001e-004
1.39250e+000 -1.33121e-004
1.39300e+000 -4.70668e-005
1.39350e+000 4.39149e-005
1.39400e+000 1.17192e-004
1.39450e+000 1.60985e-004
1.39500e+000 1.82688e-004
1.39550e+000 1.98329e-004
1.39600e+000 2.12564e-004
1.39650e+000 2.21528e-004
1.39700e+000 2.23143e-004
1.39750e+000 2.12598e-004
1.39800e+000 1.80833e-004
1.39850e+000 1.17101e-004
1.39900e+000 2.90310e-005
1.39950e+000 -6.18643e-005
1.40000e+000 -1.36368e-004
1.40050e+000 -1.91508e-004
1.40100e+000 -2.25014e-004
1.40150e+000 -2.33982e-004
1.40200e+000 -2.18251e-004
1.40250e+000 -1.73545e-004
1.40300e+000 -1.02187e-004
1.40350e+000 -2.36403e-005
1.40400e+000 3.73385e-005
1.40450e+000 6.41149e-005
1.40500e+000 5.01436e-005
1.40550e+000 -1.62455e-006
1.40600e+000 -7.19133e-005
1.40650e+000 -1.30915e-004
1.40700e+000 -1.55369e-004
1.40750e+000 -1.37003e-004
1.40800e+000 -7.83697e-005
1.40850e+000 1.41147e-005
1.40900e+000 1.18815e-004
1.40950e+000 2.09413e-004
1.41000e+000 2.73019e-004
1.41050e+000 3.07438e-004
1.41100e+000 3.09390e-004
1.41150e+000 2.84646e-004
1.41200e+000 2.37312e-004
1.41250e+000 1.67098e-004
1.41300e+000 8.52174e-005
1.41350e+000 1.71682e-005
1.41400e+000 -1.54003e-005
1.41450e+000 -1.01848e-005
1.41500e+000 1.35913e-005
1.41550e+000 3.30965e-005
1.41600e+000 3.88135e-005
1.41650e+000 3.02523e-005
1.41700e+000 1.30267e-005
1.41750e+000 -6.50793e-006
1.41800e+000 -2.56759e-005
1.41850e+000 -4.73738e-005
1.41900e+000 -7.69179e-005
1.41950e+000 -1.02592e-004
1.42000e+000 -1.14467e-004
1.42050e+000 -1.23607e-004
1.42100e+000 -1.29110e-004
1.42150e+000 -1.12041e-004
1.42200e+000 -5.98240e-005
1.42250e+000 1.04944e-005
1.42300e+000 6.26215e-005
1.42350e+000 8.26261e-005
1.42400e+000 7.44181e-005
1.42450e+000 4.35015e-005
1.42500e+000 2.35972e-006
1.42550e+000 -3.12169e-005
1.42600e+000 -4.82825e-005
1.42650e+000 -4.80528e-005
1.42700e+000 -2.80953e-005
1.42750e+000 6.25753e-006
1.42800e+000 3.34443e-005
1.42850e+000 3.15735e-005
1.42900e+000 -6.01340e-006
1.42950e+000 -6.40695e-005
1.43000e+000 -1.13164e-004
1.43050e+000 -1.27637e-004
1.43100e+000 -9.05169e-005
1.43150e+000 -2.53089e-008
1.43200e+000 1.14914e-004
1.43250e+000 2.08554e-004
1.43300e+000 2.49872e-004
1.43350e+000 2.40019e-004
1.43400e+000 1.99997e-004
1.43450e+000 1.44175e-004
1.43500e+000 8.35484e-005
1.43550e+000 3.30568e-005
1.43600e+000 -4.45100e-006
1.43650e+000 -4.22988e-005
1.43700e+000 -8.50439e-005
1.43750e+000 -1.12568e-004
1.43800e+000 -1.08984e-004
1.43850e+000 -9.23031e-005
1.43900e+000 -9.12468e-005
1.43950e+000 -1.00336e-004
1.44000e+000 -9.02954e-005
1.44050e+000 -5.71560e-005
1.44100e+000 -1.86949e-005
1.44150e+000 1.27457e-005
1.44200e+000 3.64633e-005
1.44250e+000 5.83347e-005
1.44300e+000 8.36376e-005
1.44350e+000 1.11940e-004
1.44400e+000 1.32441e-004
1.44450e+000 1.33210e-004
1.44500e+000 1.19368e-004
1.44550e+000 1.02978e-004
1.44600e+000 8.56094e-005
1.44650e+000 6.43710e-005
1.44700e+000 3.86395e-005
1.44750e+000 1.44219e-005
1.44800e+000 7.07280e-008
1.44850e+000 -6.83182e-006
1.44900e+000 -1.47203e-005
1.44950e+000 -2.86464e-005
1.45000e+000 -4.46675e-005
1.45050e+000 -6.30440e-005
1.45100e+000 -7.88604e-005
1.45150e+000 -8.58797e-005
1.45200e+000 -9.23888e-005
1.45250e+000 -1.06092e-004
1.45300e+000 -1.24241e-004
1.45350e+000 -1.49583e-004
1.45400e+000 -1.83547e-004
1.45450e+000 -2.26347e-004
1.45500e+000 -2.68684e-004
1.45550e+000 -2.95110e-004
1.45600e+000 -2.89205e-004
1.45650e+000 -2.43260e-004
1.45700e+000 -1.73446e-004
1.45750e+000 -8.86329e-005
1.45800e+000 1.27222e-005
1.45850e+000 1.24557e-004
1.45900e+000 2.38581e-004
1.45950e+000 3.46462e-004
1.46000e+000 4.31292e-004
1.46050e+000 4.77218e-004
1.46100e+000 4.84293e-004
1.46150e+000 4.56671e-004
1.46200e+000 3.96107e-004
1.46250e+000 3.10187e-004
1.46300e+000 2.12594e-004
1.46350e+000 1.23536e-004
1.46400e+000 5.51797e-005
1.46450e+000 5.39139e-006
1.46500e+000 -3.27434e-005
1.46550e+000 -6.86353e-005
1.46600e+000 -1.06856e-004
1.46650e+000 -1.37618e-004
1.46700e+000 -1.54684e-004
1.46750e+000 -1.70046e-004
1.46800e+000 -1.86432e-004
1.46850e+000 -2.00348e-004
1.46900e+000 -2.11146e-004
1.46950e+000 -2.11055e-004
1.47000e+000 -1.83303e-004
1.47050e+000 -1.23051e-004
1.47100e+000 -4.31836e-005
1.47150e+000 3.25609e-005
1.47200e+000 8.88338e-005
1.47250e+000 1.21843e-004
1.47300e+000 1.31171e-004
1.47350e+000 1.19671e-004
1.47400e+000 9.33765e-005
1.47450e+000 6.33293e-005
1.47500e+000 4.04327e-005
1.47550e+000 3.01640e-005
1.47600e+000 3.16765e-005
1.47650e+000 2.88700e-005
1.47700e+000 5.46312e-006
1.47750e+000 -2.49397e-005
1.47800e+000 -3.64682e-005
1.47850e+000 -3.50564e-005
1.47900e+000 -2.87094e-005
1.47950e+000 -1.51619e-005
1.48000e+000 6.53667e-006
1.48050e+000 3.44784e-005
1.48100e+000 7.57107e-005
1.48150e+000 1.29692e-004
1.48200e+000 1.80872e-004
1.48250e+000 2.06234e-004
1.48300e+000 2.00142e-004
1.48350e+000 1.76278e-004
1.48400e+000 1.48987e-004
1.48450e+000 1.11504e-004
1.48500e+000 5.79739e-005
1.48550e+000 2.70401e-006
1.48600e+000 -3.66452e-005
1.48650e+000 -5.72364e-005
1.48700e+000 -6.92841e-005
1.48750e+000 -8.23503e-005
1.48800e+000 -1.00666e-004
1.48850e+000 -1.25846e-004
1.48900e+000 -1.56413e-004
1.48950e+000 -1.80719e-004
1.49000e+000 -1.83819e-004
1.49050e+000 -1.67330e-004
1.49100e+000 -1.28673e-004
1.49150e+000 -6.41167e-005
1.49200e+000 2.04907e-005
1.49250e+000 1.14799e-004
1.49300e+000 2.02830e-004
1.49350e+000 2.69041e-004
1.49400e+000 2.98731e-004
1.49450e+000 2.79935e-004
1.49500e+000 2.18996e-004
1.49550e+000 1.30693e-004
1.49600e+000 3.56406e-005
1.49650e+000 -4.36216e-005
1.49700e+000 -1.04014e-004
1.49750e+000 -1.50979e-004
1.49800e+000 -1.78953e-004
1.49850e+000 -1.77801e-004
1.49900e+000 -1.45726e-004
1.49950e+000 -9.14962e-005
1.50000e+000 -3.82596e-005
1.50050e+000 -9.09371e-006
1.50100e+000 -6.66486e-006
1.50150e+000 -2.01319e-005
1.50200e+000 -3.89179e-005
1.50250e+000 -5.86978e-005
1.50300e+000 -7.69632e-005
1.50350e+000 -8.41641e-005
1.50400e+000 -7.09835e-005
1.50450e+000 -4.49700e-005
1.50500e+000 -1.26630e-005
1.50550e+000 2.88407e-005
1.50600e+000 7.90287e-005
1.50650e+000 1.30661e-004
1.50700e+000 1.79190e-004
1.50750e+000 2.12579e-004
1.50800e+000 2.17148e-004
1.50850e+000 1.96294e-004
1.50900e+000 1.57553e-004
1.50950e+000 9.77183e-005
1.51000e+000 2.82051e-005
1.51050e+000 -3.99442e-005
1.51100e+000 -1.00370e-004
1.51150e+000 -1.43586e-004
1.51200e+000 -1.63041e-004
1.51250e+000 -1.51712e-004
1.51300e+000 -1.12311e-004
1.51350e+000 -7.03698e-005
1.51400e+000 -5.73488e-005
1.51450e+000 -8.40338e-005
1.51500e+000 -1.29219e-004
1.51550e+000 -1.59488e-004
1.51600e+000 -1.55308e-004
1.51650e+000 -1.09288e-004
1.51700e+000 -2.87787e-005
1.51750e+000 6.02265e-005
1.51800e+000 1.24814e-004
1.51850e+000 1.49415e-004
1.51900e+000 1.41055e-004
1.51950e+000 1.13217e-004
1.52000e+000 9.48361e-005
1.52050e+000 1.07391e-004
1.52100e+000 1.51413e-004
1.52150e+000 2.08169e-004
1.52200e+000 2.55300e-004
1.52250e+000 2.84569e-004
1.52300e+000 2.98330e-004
1.52350e+000 2.96570e-004
1.52400e+000 2.70597e-004
1.52450e+000 2.15730e-004
1.52500e+000 1.39946e-004
1.52550e+000 5.75082e-005
1.52600e+000 -2.41909e-005
1.52650e+000 -1.02804e-004
1.52700e+000 -1.77564e-004
1.52750e+000 -2.47838e-004
1.52800e+000 -3.05658e-004
1.52850e+000 -3.38986e-004
1.52900e+000 -3.48401e-004
1.52950e+000 -3.42623e-004
1.53000e+000 -3.16445e-004
1.53050e+000 -2.69838e-004
1.53100e+000 -2.23879e-004
1.53150e+000 -1.92538e-004
1.53200e+000 -1.67267e-004
1.53250e+000 -1.42184e-004
1.53300e+000 -1.17911e-004
1.53350e+000 -1.00788e-004
1.53400e+000 -9.50682e-005
1.53450e+000 -1.02662e-004
1.53500e+000 -1.12351e-004
1.53550e+000 -9.37721e-005
1.53600e+000 -3.20086e-005
1.53650e+000 6.00443e-005
1.53700e+000 1.58725e-004
1.53750e+000 2.48308e-004
1.53800e+000 3.22753e-004
1.53850e+000 3.73392e-004
1.53900e+000 3.82060e-004
1.53950e+000 3.44597e-004
1.54000e+000 2.92155e-004
1.54050e+000 2.58815e-004
1.54100e+000 2.45127e-004
1.54150e+000 2.27707e-004
1.54200e+000 1.91527e-004
1.54250e+000 1.39576e-004
1.54300e+000 8.24141e-005
1.54350e+000 3.29606e-005
1.54400e+000 -1.03545e-005
1.54450e+000 -5.25919e-005
1.54500e+000 -8.62720e-005
1.54550e+000 -9.96704e-005
1.54600e+000 -9.00540e-005
1.54650e+000 -6.74355e-005
1.54700e+000 -4.30485e-005
1.54750e+000 -2.79988e-005
1.54800e+000 -3.16126e-005
1.54850e+000 -5.14457e-005
1.54900e+000 -6.95850e-005
1.54950e+000 -6.74367e-005
1.55000e+000 -4.38741e-005
1.55050e+000 1.04641e-007
1.55100e+000 6.71458e-005
1.55150e+000 1.51665e-004
1.55200e+000 2.38722e-004
1.55250e+000 3.07935e-004
1.55300e+000 3.36789e-004
1.55350e+000 3.10526e-004
1.55400e+000 2.33595e-004
1.55450e+000 1.25419e-004
1.55500e+000 7.54094e-006
1.55550e+000 -9.63581e-005
1.55600e+000 -1.67827e-004
1.55650e+000 -2.09875e-004
1.55700e+000 -2.37401e-004
1.55750e+000 -2.58004e-004
1.55800e+000 -2.65415e-004
1.55850e+000 -2.54086e-004
1.55900e+000 -2.28285e-004
1.55950e+000 -1.99119e-004
1.56000e+000 -1.64485e-004
1.56050e+000 -1.18100e-004
1.56100e+000 -5.73914e-005
1.56150e+000 2.23844e-005
1.56200e+000 1.16021e-004
1.56250e+000 1.99309e-004
1.56300e+000 2.52825e-004
1.56350e+000 2.67644e-004
1.56400e+000 2.48809e-004
1.56450e+000 2.06486e-004
1.56500e+000 1.52163e-004
1.56550e+000 9.55551e-005
1.56600e+000 4.56634e-005
1.56650e+000 1.08117e-005
1.56700e+000 -1.00781e-005
1.56750e+000 -2.90241e-005
1.56800e+000 -5.50947e-005
1.56850e+000 -8.59044e-005
1.56900e+000 -1.13995e-004
1.56950e+000 -1.38200e-004
1.57000e+000 -1.67069e-004
1.57050e+000 -2.02942e-004
1.57100e+000 -2.28449e-004
1.57150e+000 -2.20460e-004
1.57200e+000 -1.80341e-004
1.57250e+000 -1.24055e-004
1.57300e+000 -6.53659e-005
1.57350e+000 -1.38237e-005
1.57400e+000 1.94353e-005
1.57450e+000 2.15559e-005
1.57500e+000 -1.02786e-005
1.57550e+000 -5.64240e-005
1.57600e+000 -9.38158e-005
1.57650e+000 -1.12698e-004
1.57700e+000 -1.03915e-004
1.57750e+000 -5.82157e-005
1.57800e+000 2.80185e-005
1.57850e+000 1.41707e-004
1.57900e+000 2.54784e-004
1.57950e+000 3.49980e-004
1.58000e+000 4.10203e-004
1.58050e+000 4.15696e-004
1.58100e+000 3.62431e-004
1.58150e+000 2.67326e-004
1.58200e+000 1.62421e-004
1.58250e+000 7.91014e-005
1.58300e+000 3.55093e-005
1.58350e+000 2.74361e-005
1.58400e+000 3.50308e-005
1.58450e+000 4.37780e-005
1.58500e+000 4.20315e-005
1.58550e+000 2.10121e-005
1.58600e+000 -2.14460e-005
1.58650e+000 -8.81876e-005
1.58700e+000 -1.74783e-004
1.58750e+000 -2.48837e-004
1.58800e+000 -2.82174e-004
1.58850e+000 -2.78908e-004
1.58900e+000 -2.58949e-004
1.58950e+000 -2.35009e-004
1.59000e+000 -2.07851e-004
1.59050e+000 -1.77507e-004
1.59100e+000 -1.35005e-004
1.59150e+000 -7.55871e-005
1.59200e+000 -1.04898e-005
1.59250e+000 4.29285e-005
1.59300e+000 7.61209e-005
1.59350e+000 9.08372e-005
1.59400e+000 8.91622e-005
1.59450e+000 7.65440e-005
1.59500e+000 5.92593e-005
1.59550e+000 3.62893e-005
1.59600e+000 1.28907e-005
1.59650e+000 -3.13734e-006
1.59700e+000 -1.65273e-005
1.59750e+000 -3.06367e-005
1.59800e+000 -4.38068e-005
1.59850e+000 -4.39237e-005
1.59900e+000 -1.10644e-005
1.59950e+000 5.54113e-005
1.60000e+000 1.39398e-004
1.60050e+000 2.26233e-004
1.60100e+000 3.04240e-004
1.60150e+000 3.51345e-004
1.60200e+000 3.50954e-004
1.60250e+000 3.12999e-004
1.60300e+000 2.59141e-004
1.60350e+000 2.07350e-004
1.60400e+000 1.65173e-004
1.60450e+000 1.31283e-004
1.60500e+000 1.01477e-004
1.60550e+000 7.64845e-005
1.60600e+000 5.93161e-005
1.60650e+000 4.50223e-005
1.60700e+000 2.43840e-005
1.60750e+000 -5.36993e-006
1.60800e+000 -3.70326e-005
1.60850e+000 -6.35564e-005
1.60900e+000 -8.58638e-005
1.60950e+000 -1.06086e-004
1.61000e+000 -1.26184e-004
1.61050e+000 -1.46118e-004
1.61100e+000 -1.59682e-004
1.61150e+000 -1.61560e-004
1.61200e+000 -1.47654e-004
1.61250e+000 -1.26305e-004
1.61300e+000 -1.10076e-004
1.61350e+000 -1.02144e-004
1.61400e+000 -9.87441e-005
1.61450e+000 -1.01090e-004
1.61500e+000 -1.11389e-004
1.61550e+000 -1.18220e-004
1.61600e+000 -1.11933e-004
1.61650e+000 -8.78458e-005
1.61700e+000 -5.16704e-005
1.61750e+000 -2.16728e-005
1.61800e+000 -1.64483e-005
1.61850e+000 -3.08611e-005
1.61900e+000 -5.08914e-005
1.61950e+000 -7.44106e-005
1.62000e+000 -1.05003e-004
1.62050e+000 -1.32594e-004
1.62100e+000 -1.41580e-004
1.62150e+000 -1.33530e-004
1.62200e+000 -1.18219e-004
1.62250e+000 -1.00834e-004
1.62300e+000 -8.24215e-005
1.62350e+000 -6.02855e-005
1.62400e+000 -2.55143e-005
1.62450e+000 3.38837e-005
1.62500e+000 1.12311e-004
1.62550e+000 1.96603e-004
1.62600e+000 2.68606e-004
1.62650e+000 3.01749e-004
1.62700e+000 2.81274e-004
1.62750e+000 2.17816e-004
1.62800e+000 1.38346e-004
1.62850e+000 7.02718e-005
1.62900e+000 3.71294e-005
1.62950e+000 4.18052e-005
1.63000e+000 7.09301e-005
1.63050e+000 1.22094e-004
1.63100e+000 1.97212e-004
1.63150e+000 2.73398e-004
1.63200e+000 3.08680e-004
1.63250e+000 2.92663e-004
1.63300e+000 2.35519e-004
1.63350e+000 1.45622e-004
1.63400e+000 3.96248e-005
1.63450e+000 -4.96775e-005
1.63500e+000 -9.83822e-005
1.63550e+000 -1.19709e-004
1.63600e+000 -1.37510e-004
1.63650e+000 -1.51014e-004
1.63700e+000 -1.45451e-004
1.63750e+000 -1.15275e-004
1.63800e+000 -7.24594e-005
1.63850e+000 -3.68653e-005
1.63900e+000 -2.04233e-005
1.63950e+000 -2.26024e-005
1.64000e+000 -2.42183e-005
1.64050e+000 -1.60075e-006
1.64100e+000 4.54329e-005
1.64150e+000 1.01290e-004
1.64200e+000 1.50280e-004
1.64250e+000 1.81560e-004
1.64300e+000 1.88025e-004
1.64350e+000 1.67255e-004
1.64400e+000 1.25921e-004
1.64450e+000 7.95336e-005
1.64500e+000 4.49940e-005
1.64550e+000 1.60760e-005
1.64600e+000 -2.84872e-005
1.64650e+000 -8.66463e-005
1.64700e+000 -1.46712e-004
1.64750e+000 -2.04092e-004
1.64800e+000 -2.49476e-004
1.64850e+000 -2.71627e-004
1.64900e+000 -2.62846e-004
1.64950e+000 -2.22050e-004
1.65000e+000 -1.62089e-004
1.65050e+000 -9.68621e-005
1.65100e+000 -2.38621e-005
1.65150e+000 6.51156e-005
1.65200e+000 1.62708e-004
1.65250e+000 2.42468e-004
1.65300e+000 2.80523e-004
1.65350e+000 2.67905e-004
1.65400e+000 2.11261e-004
1.65450e+000 1.29013e-004
1.65500e+000 4.79035e-005
1.65550e+000 -7.62974e-006
1.65600e+000 -2.77008e-005
1.65650e+000 -2.27384e-005
1.65700e+000 -1.56732e-005
1.65750e+000 -1.33964e-005
1.65800e+000 -5.92541e-006
1.65850e+000 1.19840e-005
1.65900e+000 3.00106e-005
1.65950e+000 3.26650e-005
1.66000e+000 1.76127e-005
1.66050e+000 -5.32501e-006
1.66100e+000 -3.52428e-005
1.66150e+000 -8.27474e-005
1.66200e+000 -1.45724e-004
1.66250e+000 -2.00138e-004
1.66300e+000 -2.21421e-004
1.66350e+000 -2.03997e-004
1.66400e+000 -1.64177e-004
1.66450e+000 -1.36170e-004
1.66500e+000 -1.52588e-004
1.66550e+000 -2.12303e-004
1.66600e+000 -2.74701e-004
1.66650e+000 -2.94404e-004
1.66700e+000 -2.53318e-004
1.66750e+000 -1.62745e-004
1.66800e+000 -4.87267e-005
1.66850e+000 6.66193e-005
1.66900e+000 1.66723e-004
1.66950e+000 2.37518e-004
1.67000e+000 2.69306e-004
1.67050e+000 2.56713e-004
1.67100e+000 2.04298e-004
1.67150e+000 1.36779e-004
1.67200e+000 9.72291e-005
1.67250e+000 1.15965e-004
1.67300e+000 1.88229e-004
1.67350e+000 2.83375e-004
1.67400e+000 3.72438e-004
1.67450e+000 4.42590e-004
1.67500e+000 4.83067e-004
1.67550e+000 4.83929e-004
1.67600e+000 4.48184e-004
1.67650e+000 3.88585e-004
1.67700e+000 3.16138e-004
1.67750e+000 2.36481e-004
1.67800e+000 1.51708e-004
1.67850e+000 6.34617e-005
1.67900e+000 -2.00608e-005
1.67950e+000 -9.28839e-005
1.68000e+000 -1.49081e-004
1.68050e+000 -1.87128e-004
1.68100e+000 -2.08155e-004
1.68150e+000 -2.15553e-004
1.68200e+000 -2.19854e-004
1.68250e+000 -2.29627e-004
1.68300e+000 -2.38072e-004
1.68350e+000 -2.39804e-004
1.68400e+000 -2.38010e-004
1.68450e+000 -2.36315e-004
1.68500e+000 -2.38303e-004
1.68550e+000 -2.51367e-004
1.68600e+000 -2.80796e-004
1.68650e+000 -3.20081e-004
1.68700e+000 -3.50714e-004
1.68750e+000 -3.56607e-004
1.68800e+000 -3.30480e-004
1.68850e+000 -2.69022e-004
1.68900e+000 -1.81963e-004
1.68950e+000 -9.25087e-005
1.69000e+000 -1.81357e-005
1.69050e+000 3.97441e-005
1.69100e+000 8.71702e-005
1.69150e+000 1.22085e-004
1.69200e+000 1.43717e-004
1.69250e+000 1.67423e-004
1.69300e+000 1.99899e-004
1.69350e+000 2.27182e-004
1.69400e+000 2.36819e-004
1.69450e+000 2.36191e-004
1.69500e+000 2.40342e-004
1.69550e+000 2.34740e-004
1.69600e+000 1.94205e-004
1.69650e+000 1.20921e-004
1.69700e+000 3.73314e-005
1.69750e+000 -4.43221e-005
1.69800e+000 -1.19036e-004
1.69850e+000 -1.83171e-004
1.69900e+000 -2.25273e-004
1.69950e+000 -2.21104e-004
1.70000e+000 -1.63685e-004
1.70050e+000 -6.49847e-005
1.70100e+000 5.75679e-005
1.70150e+000 1.84910e-004
1.70200e+000 3.17872e-004
1.70250e+000 4.49598e-004
1.70300e+000 5.45242e-004
1.70350e+000 5.79039e-004
1.70400e+000 5.50689e-004
1.70450e+000 4.81259e-004
1.70500e+000 3.96420e-004
1.70550e+000 3.12752e-004
1.70600e+000 2.40228e-004
1.70650e+000 1.71239e-004
1.70700e+000 9.84115e-005
1.70750e+000 2.98403e-005
1.70800e+000 -2.38219e-005
1.70850e+000 -6.66935e-005
1.70900e+000 -1.05709e-004
1.70950e+000 -1.40625e-004
1.71000e+000 -1.76958e-004
1.71050e+000 -2.16722e-004
1.71100e+000 -2.53949e-004
1.71150e+000 -2.83099e-004
1.71200e+000 -2.99321e-004
1.71250e+000 -2.94348e-004
1.71300e+000 -2.63922e-004
1.71350e+000 -2.11301e-004
1.71400e+000 -1.45697e-004
1.71450e+000 -7.64342e-005
1.71500e+000 -1.07380e-005
1.71550e+000 4.60540e-005
1.71600e+000 8.65945e-005
1.71650e+000 1.05097e-004
1.71700e+000 1.00555e-004
1.71750e+000 7.53444e-005
1.71800e+000 3.38547e-005
1.71850e+000 -2.27303e-005
1.71900e+000 -9.04985e-005
1.71950e+000 -1.58012e-004
1.72000e+000 -2.09157e-004
1.72050e+000 -2.39229e-004
1.72100e+000 -2.47158e-004
1.72150e+000 -2.37850e-004
1.72200e+000 -2.24413e-004
1.72250e+000 -2.07629e-004
1.72300e+000 -1.72721e-004
1.72350e+000 -1.27823e-004
1.72400e+000 -9.25198e-005
1.72450e+000 -7.47722e-005
1.72500e+000 -6.90485e-005
1.72550e+000 -6.61623e-005
1.72600e+000 -5.75262e-005
1.72650e+000 -2.97345e-005
1.72700e+000 2.05842e-005
1.72750e+000 8.08666e-005
1.72800e+000 1.38405e-004
1.72850e+000 1.79112e-004
1.72900e+000 1.91331e-004
1.72950e+000 1.75921e-004
1.73000e+000 1.40923e-004
1.73050e+000 1.01558e-004
1.73100e+000 7.66278e-005
1.73150e+000 7.15542e-005
1.73200e+000 8.42524e-005
1.73250e+000 1.17287e-004
1.73300e+000 1.62147e-004
1.73350e+000 1.96380e-004
1.73400e+000 2.04389e-004
1.73450e+000 1.96312e-004
1.73500e+000 1.86712e-004
1.73550e+000 1.78304e-004
1.73600e+000 1.68137e-004
1.73650e+000 1.50378e-004
1.73700e+000 1.21738e-004
1.73750e+000 8.24030e-005
1.73800e+000 4.17254e-005
1.73850e+000 5.27909e-006
1.73900e+000 -2.63711e-005
1.73950e+000 -5.37890e-005
1.74000e+000 -7.99789e-005
1.74050e+000 -1.07188e-004
1.74100e+000 -1.33606e-004
1.74150e+000 -1.62363e-004
1.74200e+000 -1.92573e-004
1.74250e+000 -2.16156e-004
1.74300e+000 -2.33350e-004
1.74350e+000 -2.41623e-004
1.74400e+000 -2.26125e-004
1.74450e+000 -1.80490e-004
1.74500e+000 -1.19367e-004
1.74550e+000 -6.80139e-005
1.74600e+000 -3.96158e-005
1.74650e+000 -3.39960e-005
1.74700e+000 -5.66731e-005
1.74750e+000 -9.87249e-005
1.74800e+000 -1.34325e-004
1.74850e+000 -1.45129e-004
1.74900e+000 -1.21024e-004
1.74950e+000 -5.13537e-005
1.75000e+000 5.96564e-005
1.75050e+000 1.75940e-004
1.75100e+000 2.48850e-004
1.75150e+000 2.70669e-004
1.75200e+000 2.69587e-004
1.75250e+000 2.62516e-004
1.75300e+000 2.49768e-004
1.75350e+000 2.29606e-004
1.75400e+000 1.96557e-004
1.75450e+000 1.45032e-004
1.75500e+000 8.06698e-005
1.75550e+000 2.21038e-005
1.75600e+000 -1.79487e-005
1.75650e+000 -3.73971e-005
1.75700e+000 -3.16440e-005
1.75750e+000 7.81970e-007
1.75800e+000 4.30219e-005
1.75850e+000 7.56754e-005
1.75900e+000 1.01317e-004
1.75950e+000 1.27249e-004
1.76000e+000 1.50792e-004
1.76050e+000 1.65746e-004
1.76100e+000 1.62108e-004
1.76150e+000 1.40317e-004
1.76200e+000 1.10448e-004
1.76250e+000 8.68671e-005
1.76300e+000 7.80431e-005
1.76350e+000 7.93906e-005
1.76400e+000 8.65942e-005
1.76450e+000 9.86345e-005
1.76500e+000 1.05497e-004
1.76550e+000 1.05559e-004
1.76600e+000 1.09815e-004
1.76650e+000 1.21478e-004
1.76700e+000 1.31366e-004
1.76750e+000 1.24785e-004
1.76800e+000 9.61851e-005
1.76850e+000 4.99581e-005
1.76900e+000 -6.58512e-006
1.76950e+000 -6.04618e-005
1.77000e+000 -1.06778e-004
1.77050e+000 -1.51568e-004
1.77100e+000 -1.91290e-004
1.77150e+000 -2.10705e-004
1.77200e+000 -2.03363e-004
1.77250e+000 -1.81356e-004
1.77300e+000 -1.50449e-004
1.77350e+000 -1.06900e-004
1.77400e+000 -6.64356e-005
1.77450e+000 -4.79671e-005
1.77500e+000 -5.62387e-005
1.77550e+000 -8.18367e-005
1.77600e+000 -1.22586e-004
1.77650e+000 -1.80160e-004
1.77700e+000 -2.37801e-004
1.77750e+000 -2.69120e-004
1.77800e+000 -2.56941e-004
1.77850e+000 -2.09539e-004
1.77900e+000 -1.45362e-004
1.77950e+000 -7.77410e-005
1.78000e+000 -1.57902e-005
1.78050e+000 2.64274e-005
1.78100e+000 5.50452e-005
1.78150e+000 9.39008e-005
1.78200e+000 1.54819e-004
1.78250e+000 2.28271e-004
1.78300e+000 2.98805e-004
1.78350e+000 3.47278e-004
1.78400e+000 3.49328e-004
1.78450e+000 2.98607e-004
1.78500e+000 2.21024e-004
1.78550e+000 1.53712e-004
1.78600e+000 1.19320e-004
1.78650e+000 1.19411e-004
1.78700e+000 1.31463e-004
1.78750e+000 1.25337e-004
1.78800e+000 9.19449e-005
1.78850e+000 4.15291e-005
1.78900e+000 -1.40614e-005
1.78950e+000 -6.24156e-005
1.79000e+000 -9.57114e-005
1.79050e+000 -1.21004e-004
1.79100e+000 -1.52166e-004
1.79150e+000 -1.93965e-004
1.79200e+000 -2.46069e-004
1.79250e+000 -2.97120e-004
1.79300e+000 -3.26428e-004
1.79350e+000 -3.26644e-004
1.79400e+000 -3.03405e-004
1.79450e+000 -2.51474e-004
1.79500e+000 -1.67651e-004
1.79550e+000 -7.79690e-005
1.79600e+000 -3.39843e-005
1.79650e+000 -6.45336e-005
1.79700e+000 -1.44995e-004
1.79750e+000 -2.17735e-004
1.79800e+000 -2.41922e-004
1.79850e+000 -2.20221e-004
1.79900e+000 -1.64176e-004
1.79950e+000 -7.34460e-005
1.80000e+000 3.83091e-005
1.80050e+000 1.45486e-004
1.80100e+000 2.39430e-004
1.80150e+000 3.20874e-004
1.80200e+000 3.75175e-004
1.80250e+000 3.84163e-004
1.80300e+000 3.53602e-004
1.80350e+000 2.98522e-004
1.80400e+000 2.28449e-004
1.80450e+000 1.65386e-004
1.80500e+000 1.36070e-004
1.80550e+000 1.42320e-004
1.80600e+000 1.85192e-004
1.80650e+000 2.45350e-004
1.80700e+000 2.95867e-004
1.80750e+000 3.28086e-004
1.80800e+000 3.28925e-004
1.80850e+000 2.84148e-004
1.80900e+000 2.02033e-004
1.80950e+000 1.06501e-004
1.81000e+000 2.14152e-005
1.81050e+000 -3.35274e-005
1.81100e+000 -5.01739e-005
1.81150e+000 -4.24199e-005
1.81200e+000 -3.16724e-005
1.81250e+000 -2.49918e-005
1.81300e+000 -1.94154e-005
1.81350e+000 -1.29124e-005
1.81400e+000 -7.47089e-006
1.81450e+000 -1.80775e-006
1.81500e+000 2.77336e-006
1.81550e+000 -9.67610e-007
1.81600e+000 -1.54872e-005
1.81650e+000 -4.02161e-005
1.81700e+000 -7.25051e-005
1.81750e+000 -1.06404e-004
1.81800e+000 -1.36423e-004
1.81850e+000 -1.62901e-004
1.81900e+000 -1.85376e-004
1.81950e+000 -1.95015e-004
1.82000e+000 -1.83325e-004
1.82050e+000 -1.48460e-004
1.82100e+000 -1.04171e-004
1.82150e+000 -7.02036e-005
1.82200e+000 -5.31184e-005
1.82250e+000 -4.54131e-005
1.82300e+000 -3.50673e-005
1.82350e+000 -1.82989e-005
1.82400e+000 -2.97749e-006
1.82450e+000 3.89797e-006
1.82500e+000 -5.01904e-007
1.82550e+000 -2.03840e-005
1.82600e+000 -5.38980e-005
1.82650e+000 -8.77036e-005
1.82700e+000 -1.03730e-004
1.82750e+000 -9.24533e-005
1.82800e+000 -6.89536e-005
1.82850e+000 -5.03303e-005
1.82900e+000 -2.49213e-005
1.82950e+000 1.80929e-005
1.83000e+000 6.86707e-005
1.83050e+000 1.12084e-004
1.83100e+000 1.37228e-004
1.83150e+000 1.38702e-004
1.83200e+000 1.15610e-004
1.83250e+000 7.48176e-005
1.83300e+000 3.25832e-005
1.83350e+000 3.23427e-006
1.83400e+000 -1.59926e-005
1.83450e+000 -3.71970e-005
1.83500e+000 -6.27538e-005
1.83550e+000 -8.86289e-005
1.83600e+000 -1.16401e-004
1.83650e+000 -1.38187e-004
1.83700e+000 -1.43555e-004
1.83750e+000 -1.36386e-004
1.83800e+000 -1.23742e-004
1.83850e+000 -1.08936e-004
1.83900e+000 -9.77103e-005
1.83950e+000 -8.77835e-005
1.84000e+000 -5.85358e-005
1.84050e+000 3.51277e-006
1.84100e+000 8.97675e-005
1.84150e+000 1.82348e-004
1.84200e+000 2.61241e-004
1.84250e+000 3.16721e-004
1.84300e+000 3.59360e-004
1.84350e+000 3.93168e-004
1.84400e+000 4.08044e-004
1.84450e+000 4.05320e-004
1.84500e+000 3.92684e-004
1.84550e+000 3.55480e-004
1.84600e+000 2.82054e-004
1.84650e+000 1.87166e-004
1.84700e+000 9.49641e-005
1.84750e+000 1.68117e-005
1.84800e+000 -4.25709e-005
1.84850e+000 -8.08613e-005
1.84900e+000 -1.03965e-004
1.84950e+000 -1.19948e-004
1.85000e+000 -1.29776e-004
1.85050e+000 -1.32881e-004
1.85100e+000 -1.35018e-004
1.85150e+000 -1.42156e-004
1.85200e+000 -1.49885e-004
1.85250e+000 -1.49103e-004
1.85300e+000 -1.38221e-004
1.85350e+000 -1.22965e-004
1.85400e+000 -1.09984e-004
1.85450e+000 -1.02118e-004
1.85500e+000 -1.03088e-004
1.85550e+000 -1.18074e-004
1.85600e+000 -1.57120e-004
1.85650e+000 -2.20645e-004
1.85700e+000 -2.73542e-004
1.85750e+000 -2.93317e-004
1.85800e+000 -2.88129e-004
1.85850e+000 -2.70059e-004
1.85900e+000 -2.44870e-004
1.85950e+000 -2.13652e-004
1.86000e+000 -1.79070e-004
1.86050e+000 -1.39794e-004
1.86100e+000 -9.66809e-005
1.86150e+000 -6.92863e-005
1.86200e+000 -7.63033e-005
1.86250e+000 -1.07238e-004
1.86300e+000 -1.30560e-004
1.86350e+000 -1.21437e-004
1.86400e+000 -8.38049e-005
1.86450e+000 -3.98096e-005
1.86500e+000 -1.52142e-007
1.86550e+000 3.03704e-005
1.86600e+000 4.15766e-005
1.86650e+000 3.93457e-005
1.86700e+000 5.24205e-005
1.86750e+000 1.04730e-004
1.86800e+000 1.85543e-004
1.86850e+000 2.61085e-004
1.86900e+000 3.14219e-004
1.86950e+000 3.48341e-004
1.87000e+000 3.83166e-004
1.87050e+000 4.32946e-004
1.87100e+000 4.83178e-004
1.87150e+000 5.24763e-004
1.87200e+000 5.54212e-004
1.87250e+000 5.61821e-004
1.87300e+000 5.26352e-004
1.87350e+000 4.38793e-004
1.87400e+000 3.17055e-004
1.87450e+000 1.93265e-004
1.87500e+000 8.84377e-005
1.87550e+000 8.38502e-006
1.87600e+000 -5.10046e-005
1.87650e+000 -8.69423e-005
1.87700e+000 -9.32327e-005
1.87750e+000 -8.12106e-005
1.87800e+000 -6.91106e-005
1.87850e+000 -6.03138e-005
1.87900e+000 -4.74992e-005
1.87950e+000 -2.41674e-005
1.88000e+000 5.65328e-006
1.88050e+000 2.36842e-005
1.88100e+000 1.41743e-005
1.88150e+000 -2.41616e-005
1.88200e+000 -8.13320e-005
1.88250e+000 -1.44582e-004
1.88300e+000 -1.96170e-004
1.88350e+000 -2.28074e-004
1.88400e+000 -2.49146e-004
1.88450e+000 -2.75252e-004
1.88500e+000 -3.14636e-004
1.88550e+000 -3.55295e-004
1.88600e+000 -3.73369e-004
1.88650e+000 -3.65315e-004
1.88700e+000 -3.47888e-004
1.88750e+000 -3.39354e-004
1.88800e+000 -3.28970e-004
1.88850e+000 -2.88163e-004
1.88900e+000 -2.01155e-004
1.88950e+000 -6.93715e-005
1.89000e+000 8.91542e-005
1.89050e+000 2.41854e-004
1.89100e+000 3.63909e-004
1.89150e+000 4.46830e-004
1.89200e+000 4.91948e-004
1.89250e+000 5.07787e-004
1.89300e+000 5.08191e-004
1.89350e+000 4.97364e-004
1.89400e+000 4.54116e-004
1.89450e+000 3.65939e-004
1.89500e+000 2.57756e-004
1.89550e+000 1.57532e-004
1.89600e+000 7.61934e-005
1.89650e+000 2.44588e-005
1.89700e+000 -1.27251e-006
1.89750e+000 -2.60935e-005
1.89800e+000 -6.70087e-005
1.89850e+000 -1.18276e-004
1.89900e+000 -1.63807e-004
1.89950e+000 -1.98149e-004
1.90000e+000 -2.18455e-004
1.90050e+000 -2.32261e-004
1.90100e+000 -2.53677e-004
1.90150e+000 -2.90972e-004
1.90200e+000 -3.34012e-004
1.90250e+000 -3.57070e-004
1.90300e+000 -3.41469e-004
1.90350e+000 -2.81664e-004
1.90400e+000 -1.88494e-004
1.90450e+000 -8.40285e-005
1.90500e+000 1.61893e-005
1.90550e+000 1.05602e-004
1.90600e+000 1.77592e-004
1.90650e+000 2.29387e-004
1.90700e+000 2.65778e-004
1.90750e+000 2.92666e-004
1.90800e+000 3.10385e-004
1.90850e+000 3.11023e-004
1.90900e+000 3.00731e-004
1.90950e+000 2.92702e-004
1.91000e+000 2.89624e-004
1.91050e+000 2.74243e-004
1.91100e+000 2.35568e-004
1.91150e+000 1.77456e-004
1.91200e+000 1.13207e-004
1.91250e+000 6.12737e-005
1.91300e+000 3.14868e-005
1.91350e+000 1.92669e-005
1.91400e+000 1.28949e-005
1.91450e+000 1.11443e-006
1.91500e+000 -2.20426e-005
1.91550e+000 -5.34803e-005
1.91600e+000 -8.83946e-005
1.91650e+000 -1.21507e-004
1.91700e+000 -1.49283e-004
1.91750e+000 -1.75357e-004
1.91800e+000 -2.05197e-004
1.91850e+000 -2.45657e-004
1.91900e+000 -2.95949e-004
1.91950e+000 -3.45719e-004
1.92000e+000 -3.87744e-004
1.92050e+000 -4.16071e-004
1.92100e+000 -4.23705e-004
1.92150e+000 -4.05050e-004
1.92200e+000 -3.59631e-004
1.92250e+000 -2.86014e-004
1.92300e+000 -1.87838e-004
1.92350e+000 -8.62132e-005
1.92400e+000 -6.09154e-007
1.92450e+000 5.64047e-005
1.92500e+000 8.38243e-005
1.92550e+000 9.72495e-005
1.92600e+000 1.07619e-004
1.92650e+000 1.22808e-004
1.92700e+000 1.47947e-004
1.92750e+000 1.77463e-004
1.92800e+000 2.02807e-004
1.92850e+000 2.18293e-004
1.92900e+000 2.37507e-004
1.92950e+000 2.75595e-004
1.93000e+000 3.36914e-004
1.93050e+000 4.08937e-004
1.93100e+000 4.63201e-004
1.93150e+000 4.75163e-004
1.93200e+000 4.40907e-004
1.93250e+000 3.76454e-004
1.93300e+000 3.02707e-004
1.93350e+000 2.25740e-004
1.93400e+000 1.43324e-004
1.93450e+000 6.48608e-005
1.93500e+000 -1.52401e-006
1.93550e+000 -5.59654e-005
1.93600e+000 -9.67726e-005
1.93650e+000 -1.22265e-004
1.93700e+000 -1.38693e-004
1.93750e+000 -1.53811e-004
1.93800e+000 -1.79411e-004
1.93850e+000 -2.16032e-004
1.93900e+000 -2.54851e-004
1.93950e+000 -2.88149e-004
1.94000e+000 -3.10836e-004
1.94050e+000 -3.26750e-004
1.94100e+000 -3.34083e-004
1.94150e+000 -3.17917e-004
1.94200e+000 -2.74686e-004
1.94250e+000 -2.10998e-004
1.94300e+000 -1.30094e-004
1.94350e+000 -3.91420e-005
1.94400e+000 5.12346e-005
1.94450e+000 1.24456e-004
1.94500e+000 1.68728e-004
1.94550e+000 1.80310e-004
1.94600e+000 1.61525e-004
1.94650e+000 1.28728e-004
1.94700e+000 1.03489e-004
1.94750e+000 9.27401e-005
1.94800e+000 9.00716e-005
1.94850e+000 9.27241e-005
1.94900e+000 9.44027e-005
1.94950e+000 9.02734e-005
1.95000e+000 8.54866e-005
1.95050e+000 9.19944e-005
1.95100e+000 1.04617e-004
1.95150e+000 9.70528e-005
1.95200e+000 6.16234e-005
1.95250e+000 2.05198e-005
1.95300e+000 -1.13881e-005
1.95350e+000 -3.35239e-005
1.95400e+000 -4.47237e-005
1.95450e+000 -4.38931e-005
1.95500e+000 -3.74351e-005
1.95550e+000 -2.76770e-005
1.95600e+000 -1.52701e-005
1.95650e+000 -1.92648e-006
1.95700e+000 8.84909e-006
1.95750e+000 1.67959e-005
1.95800e+000 3.00373e-005
1.95850e+000 5.43248e-005
1.95900e+000 8.82197e-005
1.95950e+000 1.26402e-004
1.96000e+000 1.59056e-004
1.96050e+000 1.76434e-004
1.96100e+000 1.72112e-004
1.96150e+000 1.38573e-004
1.96200e+000 8.01740e-005
1.96250e+000 2.78945e-005
1.96300e+000 1.07666e-005
1.96350e+000 3.08889e-005
1.96400e+000 6.17519e-005
1.96450e+000 8.78657e-005
1.96500e+000 1.08790e-004
1.96550e+000 1.15904e-004
1.96600e+000 9.89730e-005
1.96650e+000 6.73966e-005
1.96700e+000 3.58661e-005
1.96750e+000 3.60083e-006
1.96800e+000 -3.64528e-005
1.96850e+000 -7.47396e-005
1.96900e+000 -1.02147e-004
1.96950e+000 -1.23287e-004
1.97000e+000 -1.37857e-004
1.97050e+000 -1.43714e-004
1.97100e+000 -1.45694e-004
1.97150e+000 -1.52540e-004
1.97200e+000 -1.67803e-004
1.97250e+000 -1.85926e-004
1.97300e+000 -1.88541e-004
1.97350e+000 -1.54764e-004
1.97400e+000 -8.34896e-005
1.97450e+000 5.52202e-006
1.97500e+000 8.50115e-005
1.97550e+000 1.36263e-004
1.97600e+000 1.52251e-004
1.97650e+000 1.27649e-004
1.97700e+000 6.06426e-005
1.97750e+000 -3.25202e-005
1.97800e+000 -1.19098e-004
1.97850e+000 -1.71434e-004
1.97900e+000 -1.87351e-004
1.97950e+000 -1.76361e-004
1.98000e+000 -1.50781e-004
1.98050e+000 -1.14783e-004
1.98100e+000 -7.51074e-005
1.98150e+000 -5.25390e-005
1.98200e+000 -5.52671e-005
1.98250e+000 -6.83901e-005
1.98300e+000 -8.10113e-005
1.98350e+000 -9.27416e-005
1.98400e+000 -9.99724e-005
1.98450e+000 -9.15456e-005
1.98500e+000 -5.59003e-005
1.98550e+000 8.05126e-006
1.98600e+000 8.55657e-005
1.98650e+000 1.57321e-004
1.98700e+000 2.12519e-004
1.98750e+000 2.44563e-004
1.98800e+000 2.46828e-004
1.98850e+000 2.24475e-004
1.98900e+000 1.93635e-004
1.98950e+000 1.61636e-004
1.99000e+000 1.32148e-004
1.99050e+000 1.11046e-004
1.99100e+000 9.76387e-005
1.99150e+000 8.49132e-005
1.99200e+000 6.02004e-005
1.99250e+000 1.93053e-005
1.99300e+000 -2.90522e-005
1.99350e+000 -7.01237e-005
1.99400e+000 -9.34032e-005
1.99450e+000 -9.88245e-005
1.99500e+000 -8.24460e-005
1.99550e+000 -4.61572e-005
1.99600e+000 -6.88191e-006
1.99650e+000 2.38088e-005
1.99700e+000 4.40764e-005
1.99750e+000 5.91410e-005
1.99800e+000 7.00931e-005
1.99850e+000 8.41350e-005
1.99900e+000 1.18197e-004
1.99950e+000 1.76141e-004
2.00000e+000 2.51434e-004
2.00050e+000 3.32752e-004
2.00100e+000 3.89188e-004
2.00150e+000 3.79608e-004
2.00200e+000 2.92023e-004
2.00250e+000 1.61507e-004
2.00300e+000 3.82867e-005
2.00350e+000 -4.51925e-005
2.00400e+000 -8.53833e-005
2.00450e+000 -9.62944e-005
2.00500e+000 -8.20369e-005
2.00550e+000 -5.50834e-005
2.00600e+000 -4.12429e-005
2.00650e+000 -5.14307e-005
2.00700e+000 -8.81548e-005
2.00750e+000 -1.38148e-004
2.00800e+000 -1.75349e-004
2.00850e+000 -1.85403e-004
2.00900e+000 -1.79628e-004
2.00950e+000 -1.75356e-004
2.01000e+000 -1.78723e-004
2.01050e+000 -1.89183e-004
2.01100e+000 -2.02376e-004
2.01150e+000 -2.10898e-004
2.01200e+000 -2.06822e-004
2.01250e+000 -1.77788e-004
2.01300e+000 -1.19051e-004
2.01350e+000 -3.89756e-005
2.01400e+000 4.83495e-005
2.01450e+000 1.25490e-004
2.01500e+000 1.80205e-004
2.01550e+000 2.07964e-004
2.01600e+000 2.03123e-004
2.01650e+000 1.55857e-004
2.01700e+000 7.39908e-005
2.01750e+000 -1.23196e-005
2.01800e+000 -7.18593e-005
2.01850e+000 -8.41987e-005
2.01900e+000 -4.71213e-005
2.01950e+000 2.58007e-005
2.02000e+000 1.13740e-004
2.02050e+000 1.92080e-004
2.02100e+000 2.48695e-004
2.02150e+000 2.73034e-004
2.02200e+000 2.50457e-004
2.02250e+000 1.81048e-004
2.02300e+000 1.01047e-004
2.02350e+000 4.17227e-005
2.02400e+000 -2.66857e-007
2.02450e+000 -3.27027e-005
2.02500e+000 -5.92527e-005
2.02550e+000 -7.82511e-005
2.02600e+000 -7.84215e-005
2.02650e+000 -5.96286e-005
2.02700e+000 -3.43640e-005
2.02750e+000 -1.41669e-005
2.02800e+000 -1.28004e-005
2.02850e+000 -4.36182e-005
2.02900e+000 -1.04329e-004
2.02950e+000 -1.71388e-004
2.03000e+000 -2.19667e-004
2.03050e+000 -2.32839e-004
2.03100e+000 -2.07029e-004
2.03150e+000 -1.64315e-004
2.03200e+000 -1.22715e-004
2.03250e+000 -7.83098e-005
2.03300e+000 -1.95511e-005
2.03350e+000 5.37577e-005
2.03400e+000 1.40254e-004
2.03450e+000 2.31966e-004
2.03500e+000 3.04064e-004
2.03550e+000 3.33522e-004
2.03600e+000 3.16639e-004
2.03650e+000 2.67187e-004
2.03700e+000 1.93822e-004
2.03750e+000 1.09762e-004
2.03800e+000 3.17059e-005
2.03850e+000 -3.42695e-005
2.03900e+000 -9.62753e-005
2.03950e+000 -1.67572e-004
2.04000e+000 -2.39876e-004
2.04050e+000 -2.89905e-004
2.04100e+000 -3.07719e-004
2.04150e+000 -2.98337e-004
2.04200e+000 -2.78067e-004
2.04250e+000 -2.63805e-004
2.04300e+000 -2.52685e-004
2.04350e+000 -2.27285e-004
2.04400e+000 -1.75883e-004
2.04450e+000 -9.08002e-005
2.04500e+000 2.47169e-005
2.04550e+000 1.50564e-004
2.04600e+000 2.54130e-004
2.04650e+000 3.05967e-004
2.04700e+000 3.01915e-004
2.04750e+000 2.62522e-004
2.04800e+000 2.01061e-004
2.04850e+000 1.24802e-004
2.04900e+000 5.40173e-005
2.04950e+000 5.17917e-006
2.05000e+000 -2.01499e-005
2.05050e+000 -2.36052e-005
2.05100e+000 -6.98991e-006
2.05150e+000 1.66016e-005
2.05200e+000 2.80347e-005
2.05250e+000 3.64565e-005
2.05300e+000 7.03400e-005
2.05350e+000 1.34795e-004
2.05400e+000 2.12265e-004
2.05450e+000 2.80585e-004
2.05500e+000 3.20185e-004
2.05550e+000 3.26450e-004
2.05600e+000 3.03964e-004
2.05650e+000 2.51614e-004
2.05700e+000 1.74330e-004
2.05750e+000 8.77141e-005
2.05800e+000 3.58622e-006
2.05850e+000 -6.75935e-005
2.05900e+000 -1.07888e-004
2.05950e+000 -1.09642e-004
2.06000e+000 -8.33786e-005
2.06050e+000 -4.36948e-005
2.06100e+000 -1.13485e-005
2.06150e+000 -1.23258e-006
2.06200e+000 -2.56599e-005
2.06250e+000 -9.18624e-005
2.06300e+000 -1.86140e-004
2.06350e+000 -2.85597e-004
2.06400e+000 -3.66172e-004
2.06450e+000 -3.95630e-004
2.06500e+000 -3.55015e-004
2.06550e+000 -2.56554e-004
2.06600e+000 -1.26999e-004
2.06650e+000 6.62888e-006
2.06700e+000 1.07626e-004
2.06750e+000 1.45303e-004
2.06800e+000 1.15657e-004
2.06850e+000 4.83975e-005
2.06900e+000 -9.95804e-006
2.06950e+000 -3.89384e-005
2.07000e+000 -4.17083e-005
2.07050e+000 -3.57381e-005
2.07100e+000 -3.40208e-005
2.07150e+000 -2.64792e-005
2.07200e+000 9.11417e-006
2.07250e+000 9.19016e-005
2.07300e+000 2.12954e-004
2.07350e+000 3.44413e-004
2.07400e+000 4.61954e-004
2.07450e+000 5.49600e-004
2.07500e+000 5.92463e-004
2.07550e+000 5.75047e-004
2.07600e+000 4.95313e-004
2.07650e+000 3.62793e-004
2.07700e+000 2.06370e-004
2.07750e+000 6.80452e-005
2.07800e+000 -3.67064e-005
2.07850e+000 -1.23445e-004
2.07900e+000 -2.00890e-004
2.07950e+000 -2.54576e-004
2.08000e+000 -2.66178e-004
2.08050e+000 -2.34556e-004
2.08100e+000 -1.87866e-004
2.08150e+000 -1.60871e-004
2.08200e+000 -1.54195e-004
2.08250e+000 -1.49804e-004
2.08300e+000 -1.45853e-004
2.08350e+000 -1.44066e-004
2.08400e+000 -1.34479e-004
2.08450e+000 -1.07442e-004
2.08500e+000 -6.58505e-005
2.08550e+000 -1.86922e-005
2.08600e+000 2.47544e-005
2.08650e+000 5.12693e-005
2.08700e+000 5.36023e-005
2.08750e+000 3.76247e-005
2.08800e+000 2.06300e-005
2.08850e+000 1.10886e-005
2.08900e+000 6.51300e-006
2.08950e+000 2.38089e-006
2.09000e+000 -5.39672e-006
2.09050e+000 -1.70416e-005
2.09100e+000 -3.27585e-005
2.09150e+000 -5.37079e-005
2.09200e+000 -8.25167e-005
2.09250e+000 -1.24298e-004
2.09300e+000 -1.75722e-004
2.09350e+000 -2.19065e-004
2.09400e+000 -2.48260e-004
2.09450e+000 -2.76894e-004
2.09500e+000 -3.16485e-004
2.09550e+000 -3.64256e-004
2.09600e+000 -4.04911e-004
2.09650e+000 -4.25943e-004
2.09700e+000 -4.15349e-004
2.09750e+000 -3.50153e-004
2.09800e+000 -2.20883e-004
2.09850e+000 -4.80738e-005
2.09900e+000 1.31173e-004
2.09950e+000 2.71255e-004
2.10000e+000 3.45129e-004
2.10050e+000 3.54478e-004
2.10100e+000 3.12164e-004
2.10150e+000 2.45670e-004
2.10200e+000 1.78348e-004
2.10250e+000 1.17338e-004
2.10300e+000 7.86586e-005
2.10350e+000 7.22235e-005
2.10400e+000 1.00487e-004
2.10450e+000 1.59067e-004
2.10500e+000 2.29034e-004
2.10550e+000 2.85293e-004
2.10600e+000 3.16086e-004
2.10650e+000 3.34843e-004
2.10700e+000 3.62282e-004
2.10750e+000 4.00137e-004
2.10800e+000 4.25510e-004
2.10850e+000 4.14450e-004
2.10900e+000 3.60528e-004
2.10950e+000 2.67086e-004
2.11000e+000 1.46733e-004
2.11050e+000 2.17315e-005
2.11100e+000 -9.04500e-005
2.11150e+000 -1.93405e-004
2.11200e+000 -3.00986e-004
2.11250e+000 -4.01175e-004
2.11300e+000 -4.48790e-004
2.11350e+000 -4.14266e-004
2.11400e+000 -3.10622e-004
2.11450e+000 -1.68484e-004
2.11500e+000 -1.59828e-005
2.11550e+000 1.12883e-004
2.11600e+000 1.83788e-004
2.11650e+000 1.88427e-004
2.11700e+000 1.47315e-004
2.11750e+000 9.45813e-005
2.11800e+000 6.15754e-005
2.11850e+000 5.96690e-005
2.11900e+000 8.35490e-005
2.11950e+000 1.22402e-004
2.12000e+000 1.60521e-004
2.12050e+000 1.87915e-004
2.12100e+000 1.91845e-004
2.12150e+000 1.55855e-004
2.12200e+000 8.84406e-005
2.12250e+000 1.69859e-005
2.12300e+000 -4.62592e-005
2.12350e+000 -1.04438e-004
2.12400e+000 -1.57451e-004
2.12450e+000 -2.08086e-004
2.12500e+000 -2.56082e-004
2.12550e+000 -2.88502e-004
2.12600e+000 -3.01095e-004
2.12650e+000 -2.96532e-004
2.12700e+000 -2.70996e-004
2.12750e+000 -2.24637e-004
2.12800e+000 -1.70038e-004
2.12850e+000 -1.22774e-004
2.12900e+000 -8.60480e-005
2.12950e+000 -6.43587e-005
2.13000e+000 -6.55549e-005
2.13050e+000 -8.12595e-005
2.13100e+000 -8.63632e-005
2.13150e+000 -6.86025e-005
2.13200e+000 -3.12513e-005
2.13250e+000 2.38721e-005
2.13300e+000 9.73390e-005
2.13350e+000 1.84223e-004
2.13400e+000 2.72514e-004
2.13450e+000 3.44563e-004
2.13500e+000 3.90138e-004
2.13550e+000 4.11258e-004
2.13600e+000 4.08273e-004
2.13650e+000 3.73810e-004
2.13700e+000 3.04692e-004
2.13750e+000 2.13929e-004
2.13800e+000 1.14144e-004
2.13850e+000 1.00901e-005
2.13900e+000 -9.15161e-005
2.13950e+000 -1.77691e-004
2.14000e+000 -2.36429e-004
2.14050e+000 -2.70868e-004
2.14100e+000 -2.88785e-004
2.14150e+000 -2.97166e-004
2.14200e+000 -2.95480e-004
2.14250e+000 -2.64847e-004
2.14300e+000 -1.87695e-004
2.14350e+000 -7.67806e-005
2.14400e+000 2.63955e-005
2.14450e+000 8.69044e-005
2.14500e+000 1.13655e-004
2.14550e+000 1.35256e-004
2.14600e+000 1.73922e-004
2.14650e+000 2.30481e-004
2.14700e+000 2.90177e-004
2.14750e+000 3.29990e-004
2.14800e+000 3.26054e-004
2.14850e+000 2.76771e-004
2.14900e+000 2.10916e-004
2.14950e+000 1.54029e-004
2.15000e+000 1.00321e-004
2.15050e+000 4.01297e-005
2.15100e+000 -1.49280e-005
2.15150e+000 -4.69515e-005
2.15200e+000 -5.68074e-005
2.15250e+000 -6.49163e-005
2.15300e+000 -8.85159e-005
2.15350e+000 -1.25506e-004
2.15400e+000 -1.63087e-004
2.15450e+000 -1.88296e-004
2.15500e+000 -1.92466e-004
2.15550e+000 -1.77311e-004
2.15600e+000 -1.60307e-004
2.15650e+000 -1.55801e-004
2.15700e+000 -1.63610e-004
2.15750e+000 -1.79292e-004
2.15800e+000 -2.04884e-004
2.15850e+000 -2.36960e-004
2.15900e+000 -2.58665e-004
2.15950e+000 -2.56515e-004
2.16000e+000 -2.32253e-004
2.16050e+000 -1.92869e-004
2.16100e+000 -1.23940e-004
2.16150e+000 -2.06976e-006
2.16200e+000 1.67337e-004
2.16250e+000 3.51502e-004
2.16300e+000 5.13066e-004
2.16350e+000 6.12496e-004
2.16400e+000 6.14453e-004
2.16450e+000 5.19032e-004
2.16500e+000 3.60531e-004
2.16550e+000 1.78147e-004
2.16600e+000 4.23339e-006
2.16650e+000 -1.38741e-004
2.16700e+000 -2.45278e-004
2.16750e+000 -3.13113e-004
2.16800e+000 -3.29624e-004
2.16850e+000 -2.87237e-004
2.16900e+000 -1.82441e-004
2.16950e+000 -2.97375e-005
2.17000e+000 1.23025e-004
2.17050e+000 2.33056e-004
2.17100e+000 2.95569e-004
2.17150e+000 3.14398e-004
2.17200e+000 2.93858e-004
2.17250e+000 2.51750e-004
2.17300e+000 2.05733e-004
2.17350e+000 1.66490e-004
2.17400e+000 1.35168e-004
2.17450e+000 9.54912e-005
2.17500e+000 2.51255e-005
2.17550e+000 -6.17515e-005
2.17600e+000 -1.21529e-004
2.17650e+000 -1.42121e-004
2.17700e+000 -1.45006e-004
2.17750e+000 -1.46067e-004
2.17800e+000 -1.49221e-004
2.17850e+000 -1.50775e-004
2.17900e+000 -1.33722e-004
2.17950e+000 -8.60900e-005
2.18000e+000 -3.11288e-006
2.18050e+000 1.01879e-004
2.18100e+000 2.05109e-004
2.18150e+000 2.84313e-004
2.18200e+000 3.23699e-004
2.18250e+000 3.08018e-004
2.18300e+000 2.41783e-004
2.18350e+000 1.55309e-004
2.18400e+000 6.47977e-005
2.18450e+000 -1.93852e-005
2.18500e+000 -7.76714e-005
2.18550e+000 -1.15305e-004
2.18600e+000 -1.53277e-004
2.18650e+000 -2.08192e-004
2.18700e+000 -2.71699e-004
2.18750e+000 -3.18160e-004
2.18800e+000 -3.36057e-004
2.18850e+000 -3.32206e-004
2.18900e+000 -3.16958e-004
2.18950e+000 -2.99768e-004
2.19000e+000 -2.90479e-004
2.19050e+000 -2.92409e-004
2.19100e+000 -2.94274e-004
2.19150e+000 -2.78273e-004
2.19200e+000 -2.41185e-004
2.19250e+000 -1.88745e-004
2.19300e+000 -1.24806e-004
2.19350e+000 -6.02346e-005
2.19400e+000 -7.09880e-006
2.19450e+000 3.63069e-005
2.19500e+000 7.24400e-005
2.19550e+000 1.03455e-004
2.19600e+000 1.33906e-004
2.19650e+000 1.58526e-004
2.19700e+000 1.71693e-004
2.19750e+000 1.78150e-004
2.19800e+000 1.95440e-004
2.19850e+000 2.36829e-004
2.19900e+000 2.89303e-004
2.19950e+000 3.15861e-004
2.20000e+000 2.86755e-004
2.20050e+000 2.07381e-004
2.20100e+000 1.31597e-004
2.20150e+000 1.02003e-004
2.20200e+000 1.05088e-004
2.20250e+000 1.07900e-004
2.20300e+000 8.46012e-005
2.20350e+000 2.52458e-005
2.20400e+000 -6.01204e-005
2.20450e+000 -1.59569e-004
2.20500e+000 -2.62296e-004
2.20550e+000 -3.45544e-004
2.20600e+000 -3.84436e-004
2.20650e+000 -3.75720e-004
2.20700e+000 -3.30040e-004
2.20750e+000 -2.51642e-004
2.20800e+000 -1.33217e-004
2.20850e+000 2.82667e-005
2.20900e+000 2.13504e-004
2.20950e+000 3.81365e-004
2.21000e+000 4.99703e-004
2.21050e+000 5.76686e-004
2.21100e+000 6.28895e-004
2.21150e+000 6.41908e-004
2.21200e+000 6.01250e-004
2.21250e+000 5.10821e-004
2.21300e+000 3.81073e-004
2.21350e+000 2.19914e-004
2.21400e+000 4.75259e-005
2.21450e+000 -1.15697e-004
2.21500e+000 -2.54861e-004
2.21550e+000 -3.45887e-004
2.21600e+000 -3.71616e-004
2.21650e+000 -3.34690e-004
2.21700e+000 -2.43949e-004
2.21750e+000 -1.07607e-004
2.21800e+000 4.97974e-005
2.21850e+000 1.78268e-004
2.21900e+000 2.41876e-004
2.21950e+000 2.43707e-004
2.22000e+000 2.00625e-004
2.22050e+000 1.24429e-004
2.22100e+000 2.94508e-005
2.22150e+000 -7.52935e-005
2.22200e+000 -1.74972e-004
2.22250e+000 -2.41372e-004
2.22300e+000 -2.55271e-004
2.22350e+000 -2.12270e-004
2.22400e+000 -1.15185e-004
2.22450e+000 2.24363e-005
2.22500e+000 1.66416e-004
2.22550e+000 2.79629e-004
2.22600e+000 3.45509e-004
2.22650e+000 3.65447e-004
2.22700e+000 3.47550e-004
2.22750e+000 2.99206e-004
2.22800e+000 2.33519e-004
2.22850e+000 1.68709e-004
2.22900e+000 1.07996e-004
2.22950e+000 4.03578e-005
2.23000e+000 -3.76415e-005
2.23050e+000 -1.17104e-004
2.23100e+000 -1.83320e-004
2.23150e+000 -2.23890e-004
2.23200e+000 -2.38378e-004
2.23250e+000 -2.32752e-004
2.23300e+000 -2.16343e-004
2.23350e+000 -2.04170e-004
2.23400e+000 -1.98419e-004
2.23450e+000 -1.91882e-004
2.23500e+000 -1.84087e-004
2.23550e+000 -1.67926e-004
2.23600e+000 -1.40595e-004
2.23650e+000 -1.10836e-004
2.23700e+000 -8.90024e-005
2.23750e+000 -7.89458e-005
2.23800e+000 -8.10899e-005
2.23850e+000 -9.43881e-005
2.23900e+000 -1.06400e-004
2.23950e+000 -1.10523e-004
2.24000e+000 -1.01436e-004
2.24050e+000 -6.77427e-005
2.24100e+000 -9.62119e-006
2.24150e+000 6.12550e-005
2.24200e+000 1.27872e-004
2.24250e+000 1.72170e-004
2.24300e+000 1.73951e-004
2.24350e+000 1.13759e-004
2.24400e+000 -4.55227e-006
2.24450e+000 -1.44491e-004
2.24500e+000 -2.54195e-004
2.24550e+000 -2.93248e-004
2.24600e+000 -2.51964e-004
2.24650e+000 -1.50792e-004
2.24700e+000 -2.43880e-005
2.24750e+000 9.91519e-005
2.24800e+000 2.04665e-004
2.24850e+000 2.86543e-004
2.24900e+000 3.43217e-004
2.24950e+000 3.67515e-004
2.25000e+000 3.42009e-004
2.25050e+000 2.65850e-004
2.25100e+000 1.53508e-004
2.25150e+000 2.97001e-005
2.25200e+000 -6.50123e-005
2.25250e+000 -1.06081e-004
2.25300e+000 -1.00115e-004
2.25350e+000 -5.79177e-005
2.25400e+000 1.01354e-005
2.25450e+000 7.22369e-005
2.25500e+000 9.51105e-005
2.25550e+000 7.61067e-005
2.25600e+000 3.71572e-005
2.25650e+000 1.59809e-006
2.25700e+000 -1.86886e-005
2.25750e+000 -2.36578e-005
2.25800e+000 -2.27539e-005
2.25850e+000 -2.70818e-005
2.25900e+000 -3.89272e-005
2.25950e+000 -5.52714e-005
2.26000e+000 -7.42883e-005
2.26050e+000 -9.27465e-005
2.26100e+000 -1.05881e-004
2.26150e+000 -1.09272e-004
2.26200e+000 -1.03297e-004
2.26250e+000 -8.91637e-005
2.26300e+000 -7.10930e-005
2.26350e+000 -5.75660e-005
2.26400e+000 -5.52652e-005
2.26450e+000 -6.97031e-005
2.26500e+000 -1.01175e-004
2.26550e+000 -1.35156e-004
2.26600e+000 -1.56046e-004
2.26650e+000 -1.56280e-004
2.26700e+000 -1.28341e-004
2.26750e+000 -7.80903e-005
2.26800e+000 -3.36833e-005
2.26850e+000 -2.85788e-005
2.26900e+000 -6.40769e-005
2.26950e+000 -1.06158e-004
2.27000e+000 -1.32613e-004
2.27050e+000 -1.59917e-004
2.27100e+000 -2.13705e-004
2.27150e+000 -2.90597e-004
2.27200e+000 -3.64559e-004
2.27250e+000 -4.00169e-004
2.27300e+000 -3.47844e-004
2.27350e+000 -1.76550e-004
2.27400e+000 9.57942e-005
2.27450e+000 4.11293e-004
2.27500e+000 6.95206e-004
2.27550e+000 8.87054e-004
2.27600e+000 9.48377e-004
2.27650e+000 8.79574e-004
2.27700e+000 7.25675e-004
2.27750e+000 5.40127e-004
2.27800e+000 3.60086e-004
2.27850e+000 2.00525e-004
2.27900e+000 6.53614e-005
