Frame,EMG1
1.00000000000000000000,0.00027515699999999999
1.00000000000000000000,0.00019536600000000001
1.00000000000000000000,0.00008037260000000000
1.00000000000000000000,-0.00009431100000000000
1.00000000000000000000,-0.00026359400000000002
1.00000000000000000000,-0.00029764599999999999
1.00000000000000000000,-0.00021260600000000000
1.00000000000000000000,-0.00010194199999999999
1.00000000000000000000,-0.00000748574000000000
1.00000000000000000000,0.00004809760000000000
1.00000000000000000000,0.00005674900000000000
1.00000000000000000000,0.00002199570000000000
1.00000000000000000000,-0.00002241660000000000
1.00000000000000000000,-0.00004921770000000000
1.00000000000000000000,-0.00005043470000000000
1.00000000000000000000,-0.00003774940000000000
1.00000000000000000000,-0.00002558060000000000
1.00000000000000000000,-0.00002082490000000000
1.00000000000000000000,-0.00002088410000000000
1.00000000000000000000,-0.00002042500000000000
2.00000000000000000000,-0.00001688240000000000
2.00000000000000000000,-0.00000990600000000000
2.00000000000000000000,-0.00000558564000000000
2.00000000000000000000,-0.00001661340000000000
2.00000000000000000000,-0.00005171840000000000
2.00000000000000000000,-0.00009136690000000000
2.00000000000000000000,-0.00010116299999999999
2.00000000000000000000,-0.00006184779999999999
2.00000000000000000000,0.00000964219000000000
2.00000000000000000000,0.00008454840000000001
2.00000000000000000000,0.00014656399999999999
2.00000000000000000000,0.00019121700000000001
2.00000000000000000000,0.00021214000000000001
2.00000000000000000000,0.00020383099999999999
2.00000000000000000000,0.00013340900000000000
2.00000000000000000000,-0.00000463631000000000
2.00000000000000000000,-0.00009988650000000001
2.00000000000000000000,-0.00006735870000000000
2.00000000000000000000,0.00004993790000000000
2.00000000000000000000,0.00016948000000000001
3.00000000000000000000,0.00023090099999999999
3.00000000000000000000,0.00020303899999999999
3.00000000000000000000,0.00010574100000000000
3.00000000000000000000,0.00001947110000000000
3.00000000000000000000,0.00000522329000000000
3.00000000000000000000,0.00005815450000000000
3.00000000000000000000,0.00013357100000000000
3.00000000000000000000,0.00018845900000000001
3.00000000000000000000,0.00020691300000000000
3.00000000000000000000,0.00019163399999999999
3.00000000000000000000,0.00015146300000000001
3.00000000000000000000,0.00011079500000000000
3.00000000000000000000,0.00010721000000000000
3.00000000000000000000,0.00015097099999999999
3.00000000000000000000,0.00020694400000000000
3.00000000000000000000,0.00020644200000000001
3.00000000000000000000,0.00011248599999999999
3.00000000000000000000,-0.00001917810000000000
3.00000000000000000000,-0.00009505530000000000
3.00000000000000000000,-0.00008940620000000000
4.00000000000000000000,-0.00005823070000000000
4.00000000000000000000,-0.00004387180000000000
4.00000000000000000000,-0.00004209960000000000
4.00000000000000000000,-0.00004939830000000000
4.00000000000000000000,-0.00006195620000000000
4.00000000000000000000,-0.00008413190000000001
4.00000000000000000000,-0.00013466800000000001
4.00000000000000000000,-0.00022813600000000001
4.00000000000000000000,-0.00032066499999999998
4.00000000000000000000,-0.00034188300000000002
4.00000000000000000000,-0.00027489200000000000
4.00000000000000000000,-0.00016202499999999999
4.00000000000000000000,-0.00005493960000000000
4.00000000000000000000,0.00002295290000000000
4.00000000000000000000,0.00006413690000000001
4.00000000000000000000,0.00006081410000000000
4.00000000000000000000,0.00001202050000000000
4.00000000000000000000,-0.00005687260000000000
4.00000000000000000000,-0.00010966900000000000
4.00000000000000000000,-0.00012050100000000000
5.00000000000000000000,-0.00008127890000000000
5.00000000000000000000,-0.00000675381000000000
5.00000000000000000000,0.00008250130000000000
5.00000000000000000000,0.00017876599999999999
5.00000000000000000000,0.00026341599999999999
5.00000000000000000000,0.00030902300000000001
5.00000000000000000000,0.00029661700000000000
5.00000000000000000000,0.00025435300000000002
5.00000000000000000000,0.00019440200000000001
5.00000000000000000000,0.00007315770000000000
5.00000000000000000000,-0.00007067700000000000
5.00000000000000000000,-0.00011509200000000000
5.00000000000000000000,-0.00001795240000000000
5.00000000000000000000,0.00014128900000000001
5.00000000000000000000,0.00025765800000000002
5.00000000000000000000,0.00028196999999999999
5.00000000000000000000,0.00024458400000000000
5.00000000000000000000,0.00019387899999999999
5.00000000000000000000,0.00013849300000000000
5.00000000000000000000,0.00006944370000000000
6.00000000000000000000,0.00000180659000000000
6.00000000000000000000,-0.00003370840000000000
6.00000000000000000000,-0.00002097990000000000
6.00000000000000000000,0.00003105140000000000
6.00000000000000000000,0.00009471150000000000
6.00000000000000000000,0.00014322400000000001
6.00000000000000000000,0.00016752499999999999
6.00000000000000000000,0.00017441900000000001
6.00000000000000000000,0.00016600000000000000
6.00000000000000000000,0.00014225500000000001
6.00000000000000000000,0.00011516700000000000
6.00000000000000000000,0.00007695350000000000
6.00000000000000000000,-0.00002616090000000000
6.00000000000000000000,-0.00016846499999999999
6.00000000000000000000,-0.00021696500000000001
6.00000000000000000000,-0.00013853199999999999
6.00000000000000000000,-0.00001369400000000000
6.00000000000000000000,0.00007370920000000000
6.00000000000000000000,0.00005881950000000000
6.00000000000000000000,-0.00005095630000000000
7.00000000000000000000,-0.00013812000000000001
7.00000000000000000000,-0.00010911400000000000
7.00000000000000000000,0.00000109315000000000
7.00000000000000000000,0.00011269100000000000
7.00000000000000000000,0.00017999900000000000
7.00000000000000000000,0.00020506100000000001
7.00000000000000000000,0.00019475400000000000
7.00000000000000000000,0.00015416500000000000
7.00000000000000000000,0.00009320150000000000
7.00000000000000000000,0.00002403990000000000
7.00000000000000000000,-0.00004094710000000000
7.00000000000000000000,-0.00008565140000000000
7.00000000000000000000,-0.00011092000000000000
7.00000000000000000000,-0.00013474099999999999
7.00000000000000000000,-0.00014736000000000000
7.00000000000000000000,-0.00012150100000000000
7.00000000000000000000,-0.00006594960000000000
7.00000000000000000000,-0.00002085530000000000
7.00000000000000000000,0.00001310080000000000
7.00000000000000000000,0.00006171220000000000
8.00000000000000000000,0.00011920900000000000
8.00000000000000000000,0.00016785400000000000
8.00000000000000000000,0.00020382300000000000
8.00000000000000000000,0.00022683600000000001
8.00000000000000000000,0.00023050100000000001
8.00000000000000000000,0.00017662700000000000
8.00000000000000000000,0.00004676140000000000
8.00000000000000000000,-0.00007982330000000001
8.00000000000000000000,-0.00010773500000000000
8.00000000000000000000,-0.00004250570000000000
8.00000000000000000000,0.00005571130000000000
8.00000000000000000000,0.00014632999999999999
8.00000000000000000000,0.00021037100000000000
8.00000000000000000000,0.00022708900000000001
8.00000000000000000000,0.00018826600000000000
8.00000000000000000000,0.00009640350000000000
8.00000000000000000000,-0.00003222530000000000
8.00000000000000000000,-0.00013978100000000001
8.00000000000000000000,-0.00015151400000000000
8.00000000000000000000,-0.00004810970000000000
9.00000000000000000000,0.00011036400000000000
9.00000000000000000000,0.00024207300000000001
9.00000000000000000000,0.00030103999999999998
9.00000000000000000000,0.00029507699999999998
9.00000000000000000000,0.00025047999999999997
9.00000000000000000000,0.00015919200000000000
9.00000000000000000000,-0.00000925439000000000
9.00000000000000000000,-0.00017785699999999999
9.00000000000000000000,-0.00022216400000000001
9.00000000000000000000,-0.00014837699999999999
9.00000000000000000000,-0.00006762170000000000
9.00000000000000000000,-0.00006562120000000000
9.00000000000000000000,-0.00010802500000000000
9.00000000000000000000,-0.00011614600000000000
9.00000000000000000000,-0.00007060850000000001
9.00000000000000000000,0.00000337619000000000
9.00000000000000000000,0.00007209610000000000
9.00000000000000000000,0.00010471000000000001
9.00000000000000000000,0.00009269770000000001
9.00000000000000000000,0.00006574890000000000
10.00000000000000000000,0.00005560340000000000
10.00000000000000000000,0.00005994560000000000
10.00000000000000000000,0.00005854420000000000
10.00000000000000000000,0.00004525040000000000
10.00000000000000000000,0.00002332880000000000
10.00000000000000000000,-0.00000736404000000000
10.00000000000000000000,-0.00005051890000000000
10.00000000000000000000,-0.00009950900000000000
10.00000000000000000000,-0.00012878200000000000
10.00000000000000000000,-0.00011120600000000001
10.00000000000000000000,-0.00004346910000000000
10.00000000000000000000,0.00004658330000000000
10.00000000000000000000,0.00012116500000000000
10.00000000000000000000,0.00016488599999999999
10.00000000000000000000,0.00016991099999999999
10.00000000000000000000,0.00015622699999999999
10.00000000000000000000,0.00016361199999999999
10.00000000000000000000,0.00018694499999999999
10.00000000000000000000,0.00020363700000000000
10.00000000000000000000,0.00021747199999999999
11.00000000000000000000,0.00023885500000000000
11.00000000000000000000,0.00025092799999999998
11.00000000000000000000,0.00021918799999999999
11.00000000000000000000,0.00011497500000000000
11.00000000000000000000,-0.00004869590000000000
11.00000000000000000000,-0.00017476199999999999
11.00000000000000000000,-0.00016328200000000000
11.00000000000000000000,-0.00004402840000000000
11.00000000000000000000,0.00007474369999999999
11.00000000000000000000,0.00014149599999999999
11.00000000000000000000,0.00017642400000000000
11.00000000000000000000,0.00018342400000000001
11.00000000000000000000,0.00012864400000000000
11.00000000000000000000,0.00000432282000000000
11.00000000000000000000,-0.00011915900000000000
11.00000000000000000000,-0.00016451899999999999
11.00000000000000000000,-0.00012700100000000001
11.00000000000000000000,-0.00004225850000000000
11.00000000000000000000,0.00004363730000000000
11.00000000000000000000,0.00010042400000000000
12.00000000000000000000,0.00012068700000000001
12.00000000000000000000,0.00010282400000000000
12.00000000000000000000,0.00005965210000000000
12.00000000000000000000,0.00000843564000000000
12.00000000000000000000,-0.00003585510000000000
12.00000000000000000000,-0.00006135560000000000
12.00000000000000000000,-0.00007086120000000000
12.00000000000000000000,-0.00006944080000000000
12.00000000000000000000,-0.00006446190000000000
12.00000000000000000000,-0.00005863400000000000
12.00000000000000000000,-0.00004747150000000000
12.00000000000000000000,-0.00002578820000000000
12.00000000000000000000,-0.00000844908000000000
12.00000000000000000000,-0.00002668240000000000
12.00000000000000000000,-0.00008340980000000000
12.00000000000000000000,-0.00012081300000000000
12.00000000000000000000,-0.00007994490000000000
12.00000000000000000000,0.00002206200000000000
12.00000000000000000000,0.00011554700000000000
12.00000000000000000000,0.00013936999999999999
13.00000000000000000000,0.00008117789999999999
13.00000000000000000000,-0.00001158470000000000
13.00000000000000000000,-0.00008900460000000001
13.00000000000000000000,-0.00013960800000000000
13.00000000000000000000,-0.00013385400000000001
13.00000000000000000000,-0.00003029010000000000
13.00000000000000000000,0.00014869300000000001
13.00000000000000000000,0.00032488200000000002
13.00000000000000000000,0.00042591500000000002
13.00000000000000000000,0.00043822300000000001
13.00000000000000000000,0.00036483099999999998
13.00000000000000000000,0.00021882900000000000
13.00000000000000000000,0.00007899299999999999
13.00000000000000000000,0.00001625190000000000
13.00000000000000000000,0.00003807690000000000
13.00000000000000000000,0.00009478439999999999
13.00000000000000000000,0.00014337500000000000
13.00000000000000000000,0.00016518199999999999
13.00000000000000000000,0.00015382699999999999
13.00000000000000000000,0.00010875600000000000
14.00000000000000000000,0.00004049580000000000
14.00000000000000000000,-0.00003239840000000000
14.00000000000000000000,-0.00009560460000000000
14.00000000000000000000,-0.00013664499999999999
14.00000000000000000000,-0.00015180300000000000
14.00000000000000000000,-0.00014447000000000000
14.00000000000000000000,-0.00012378800000000000
14.00000000000000000000,-0.00010260400000000000
14.00000000000000000000,-0.00011456200000000001
14.00000000000000000000,-0.00019211200000000001
14.00000000000000000000,-0.00029380200000000002
14.00000000000000000000,-0.00030295200000000000
14.00000000000000000000,-0.00019030800000000001
14.00000000000000000000,-0.00004875330000000000
14.00000000000000000000,0.00004625420000000000
14.00000000000000000000,0.00010756400000000000
14.00000000000000000000,0.00016884600000000000
14.00000000000000000000,0.00022416200000000000
14.00000000000000000000,0.00026894600000000000
14.00000000000000000000,0.00031105199999999998
15.00000000000000000000,0.00034014000000000001
15.00000000000000000000,0.00033821600000000002
15.00000000000000000000,0.00029831699999999998
15.00000000000000000000,0.00023594800000000001
15.00000000000000000000,0.00018250499999999999
15.00000000000000000000,0.00015682700000000001
15.00000000000000000000,0.00014044099999999999
15.00000000000000000000,0.00011500300000000000
15.00000000000000000000,0.00009330890000000000
15.00000000000000000000,0.00008550490000000000
15.00000000000000000000,0.00007203170000000000
15.00000000000000000000,0.00003822970000000000
15.00000000000000000000,0.00000351368000000000
15.00000000000000000000,-0.00001202920000000000
15.00000000000000000000,-0.00001511000000000000
15.00000000000000000000,-0.00002729010000000000
15.00000000000000000000,-0.00005481170000000000
15.00000000000000000000,-0.00009146160000000000
15.00000000000000000000,-0.00013617400000000000
15.00000000000000000000,-0.00020397800000000000
16.00000000000000000000,-0.00031389800000000001
16.00000000000000000000,-0.00042570299999999999
16.00000000000000000000,-0.00042753600000000001
16.00000000000000000000,-0.00030982600000000002
16.00000000000000000000,-0.00015777500000000000
16.00000000000000000000,-0.00002859090000000000
16.00000000000000000000,0.00006337109999999999
16.00000000000000000000,0.00012143700000000000
16.00000000000000000000,0.00014098200000000000
16.00000000000000000000,0.00013933700000000001
16.00000000000000000000,0.00012813200000000001
16.00000000000000000000,0.00010837300000000000
16.00000000000000000000,0.00007506460000000000
16.00000000000000000000,0.00004855560000000000
16.00000000000000000000,0.00006133860000000000
16.00000000000000000000,0.00011480700000000000
16.00000000000000000000,0.00017950700000000000
16.00000000000000000000,0.00022748899999999999
16.00000000000000000000,0.00024925000000000001
16.00000000000000000000,0.00024741299999999998
17.00000000000000000000,0.00023698799999999999
17.00000000000000000000,0.00022665599999999999
17.00000000000000000000,0.00020955100000000001
17.00000000000000000000,0.00016413500000000001
17.00000000000000000000,0.00006071780000000000
17.00000000000000000000,-0.00011042799999999999
17.00000000000000000000,-0.00027990699999999997
17.00000000000000000000,-0.00033883100000000000
17.00000000000000000000,-0.00024438699999999999
17.00000000000000000000,-0.00004085220000000000
17.00000000000000000000,0.00019275299999999999
17.00000000000000000000,0.00037004600000000001
17.00000000000000000000,0.00045019700000000000
17.00000000000000000000,0.00043932599999999997
17.00000000000000000000,0.00036325200000000000
17.00000000000000000000,0.00025974599999999999
17.00000000000000000000,0.00013903400000000001
17.00000000000000000000,-0.00002892990000000000
17.00000000000000000000,-0.00022100900000000001
17.00000000000000000000,-0.00034581700000000000
18.00000000000000000000,-0.00036120000000000000
18.00000000000000000000,-0.00031580699999999998
18.00000000000000000000,-0.00028820899999999999
18.00000000000000000000,-0.00026532599999999997
18.00000000000000000000,-0.00015245200000000000
18.00000000000000000000,0.00007120189999999999
18.00000000000000000000,0.00030503200000000000
18.00000000000000000000,0.00046015699999999999
18.00000000000000000000,0.00052439200000000004
18.00000000000000000000,0.00051416299999999999
18.00000000000000000000,0.00044033899999999999
18.00000000000000000000,0.00032503499999999999
18.00000000000000000000,0.00020525799999999999
18.00000000000000000000,0.00010698700000000000
18.00000000000000000000,0.00003761040000000000
18.00000000000000000000,-0.00001136130000000000
18.00000000000000000000,-0.00005291530000000000
18.00000000000000000000,-0.00010901800000000001
18.00000000000000000000,-0.00017906500000000001
18.00000000000000000000,-0.00021911000000000001
19.00000000000000000000,-0.00020878400000000000
19.00000000000000000000,-0.00016499900000000001
19.00000000000000000000,-0.00010600100000000000
19.00000000000000000000,-0.00004814900000000000
19.00000000000000000000,-0.00000844476000000000
19.00000000000000000000,0.00000938119000000000
19.00000000000000000000,0.00001372580000000000
19.00000000000000000000,0.00001067830000000000
19.00000000000000000000,-0.00000385881000000000
19.00000000000000000000,-0.00003393070000000000
19.00000000000000000000,-0.00006339070000000000
19.00000000000000000000,-0.00006911200000000000
19.00000000000000000000,-0.00004557740000000000
19.00000000000000000000,-0.00000275096000000000
19.00000000000000000000,0.00004872100000000000
19.00000000000000000000,0.00010021799999999999
19.00000000000000000000,0.00014676199999999999
19.00000000000000000000,0.00018184800000000000
19.00000000000000000000,0.00019115500000000001
19.00000000000000000000,0.00015058899999999999
20.00000000000000000000,0.00005210000000000000
20.00000000000000000000,-0.00004227700000000000
20.00000000000000000000,-0.00004655220000000000
20.00000000000000000000,0.00004052450000000000
20.00000000000000000000,0.00015675400000000000
20.00000000000000000000,0.00021986500000000000
20.00000000000000000000,0.00017363099999999999
20.00000000000000000000,0.00008376700000000000
20.00000000000000000000,0.00005212360000000000
20.00000000000000000000,0.00008392060000000000
20.00000000000000000000,0.00014568700000000000
20.00000000000000000000,0.00021559600000000000
20.00000000000000000000,0.00027818999999999999
20.00000000000000000000,0.00032416800000000000
20.00000000000000000000,0.00034626299999999997
20.00000000000000000000,0.00034258800000000001
20.00000000000000000000,0.00032259600000000003
20.00000000000000000000,0.00028962900000000001
20.00000000000000000000,0.00023568999999999999
20.00000000000000000000,0.00016115600000000000
21.00000000000000000000,0.00007180800000000000
21.00000000000000000000,-0.00004324190000000000
21.00000000000000000000,-0.00018519300000000000
21.00000000000000000000,-0.00028806799999999999
21.00000000000000000000,-0.00028477500000000002
21.00000000000000000000,-0.00022844599999999999
21.00000000000000000000,-0.00027491000000000001
21.00000000000000000000,-0.00049555599999999997
21.00000000000000000000,-0.00073955699999999995
21.00000000000000000000,-0.00076948499999999998
21.00000000000000000000,-0.00053598899999999995
21.00000000000000000000,-0.00022012099999999999
21.00000000000000000000,0.00002094450000000000
21.00000000000000000000,0.00014114100000000001
21.00000000000000000000,0.00013956099999999999
21.00000000000000000000,0.00010208999999999999
21.00000000000000000000,0.00011367000000000000
21.00000000000000000000,0.00017468799999999999
21.00000000000000000000,0.00023635400000000001
21.00000000000000000000,0.00025846400000000002
22.00000000000000000000,0.00022137400000000001
22.00000000000000000000,0.00009887630000000000
22.00000000000000000000,-0.00011432400000000000
22.00000000000000000000,-0.00033468099999999998
22.00000000000000000000,-0.00043476200000000000
22.00000000000000000000,-0.00038072699999999998
22.00000000000000000000,-0.00025907799999999999
22.00000000000000000000,-0.00017746099999999999
22.00000000000000000000,-0.00012871700000000001
22.00000000000000000000,-0.00003584110000000000
22.00000000000000000000,0.00010407500000000000
22.00000000000000000000,0.00025117700000000000
22.00000000000000000000,0.00038680300000000002
22.00000000000000000000,0.00048474800000000001
22.00000000000000000000,0.00053377800000000005
22.00000000000000000000,0.00054796300000000005
22.00000000000000000000,0.00053447599999999998
22.00000000000000000000,0.00049191000000000003
22.00000000000000000000,0.00041708899999999999
22.00000000000000000000,0.00026939599999999998
23.00000000000000000000,0.00001963090000000000
23.00000000000000000000,-0.00020032200000000001
23.00000000000000000000,-0.00022061199999999999
23.00000000000000000000,-0.00005341280000000000
23.00000000000000000000,0.00017191500000000000
23.00000000000000000000,0.00035297399999999999
23.00000000000000000000,0.00045746300000000002
23.00000000000000000000,0.00047221600000000002
23.00000000000000000000,0.00040358100000000002
23.00000000000000000000,0.00028738800000000002
23.00000000000000000000,0.00016476899999999999
23.00000000000000000000,0.00005930860000000000
23.00000000000000000000,-0.00002339450000000000
23.00000000000000000000,-0.00008663060000000000
23.00000000000000000000,-0.00014529000000000001
23.00000000000000000000,-0.00020547799999999999
23.00000000000000000000,-0.00024853100000000002
23.00000000000000000000,-0.00023763199999999999
23.00000000000000000000,-0.00016061400000000000
23.00000000000000000000,-0.00007752090000000000
24.00000000000000000000,-0.00008034800000000000
24.00000000000000000000,-0.00013247199999999999
24.00000000000000000000,-0.00010843799999999999
24.00000000000000000000,0.00001384750000000000
24.00000000000000000000,0.00014029600000000001
24.00000000000000000000,0.00020876200000000000
24.00000000000000000000,0.00021935499999999999
24.00000000000000000000,0.00018285099999999999
24.00000000000000000000,0.00012219400000000000
24.00000000000000000000,0.00006470730000000000
24.00000000000000000000,0.00002423570000000000
24.00000000000000000000,-0.00000559293000000000
24.00000000000000000000,-0.00004287050000000000
24.00000000000000000000,-0.00011649300000000000
24.00000000000000000000,-0.00020326099999999999
24.00000000000000000000,-0.00022761799999999999
24.00000000000000000000,-0.00015742200000000000
24.00000000000000000000,-0.00003626610000000000
24.00000000000000000000,0.00007285200000000000
24.00000000000000000000,0.00014022500000000001
25.00000000000000000000,0.00016341199999999999
25.00000000000000000000,0.00014713500000000001
25.00000000000000000000,0.00010216300000000000
25.00000000000000000000,0.00004614540000000000
25.00000000000000000000,-0.00001209320000000000
25.00000000000000000000,-0.00006878490000000001
25.00000000000000000000,-0.00010252700000000000
25.00000000000000000000,-0.00008969400000000000
25.00000000000000000000,-0.00004852970000000000
25.00000000000000000000,-0.00001437490000000000
25.00000000000000000000,0.00000540806000000000
25.00000000000000000000,0.00002092070000000000
25.00000000000000000000,0.00003755920000000000
25.00000000000000000000,0.00004846640000000000
25.00000000000000000000,0.00003609180000000000
25.00000000000000000000,-0.00001959370000000000
25.00000000000000000000,-0.00008475930000000000
25.00000000000000000000,-0.00008593150000000000
25.00000000000000000000,-0.00000672202000000000
25.00000000000000000000,0.00011761900000000000
26.00000000000000000000,0.00023921000000000001
26.00000000000000000000,0.00031336100000000001
26.00000000000000000000,0.00029817400000000001
26.00000000000000000000,0.00016194700000000001
26.00000000000000000000,-0.00004736960000000000
26.00000000000000000000,-0.00019208300000000001
26.00000000000000000000,-0.00017999400000000000
26.00000000000000000000,-0.00005435980000000000
26.00000000000000000000,0.00008681449999999999
26.00000000000000000000,0.00017898100000000001
26.00000000000000000000,0.00017889100000000001
26.00000000000000000000,0.00005712800000000000
26.00000000000000000000,-0.00013075800000000000
26.00000000000000000000,-0.00024205000000000000
26.00000000000000000000,-0.00019218900000000000
26.00000000000000000000,-0.00004835460000000000
26.00000000000000000000,0.00007660710000000000
26.00000000000000000000,0.00015029799999999999
26.00000000000000000000,0.00018251800000000000
26.00000000000000000000,0.00017373500000000000
27.00000000000000000000,0.00014015900000000000
27.00000000000000000000,0.00010522300000000001
27.00000000000000000000,0.00007024490000000000
27.00000000000000000000,0.00003268890000000000
27.00000000000000000000,0.00001058420000000000
27.00000000000000000000,-0.00000109438000000000
27.00000000000000000000,-0.00005579700000000000
27.00000000000000000000,-0.00018103699999999999
27.00000000000000000000,-0.00028121899999999998
27.00000000000000000000,-0.00024403700000000001
27.00000000000000000000,-0.00007510260000000000
27.00000000000000000000,0.00013198200000000000
27.00000000000000000000,0.00028311900000000002
27.00000000000000000000,0.00034635599999999998
27.00000000000000000000,0.00033824099999999998
27.00000000000000000000,0.00029278699999999997
27.00000000000000000000,0.00024246700000000001
27.00000000000000000000,0.00020950799999999999
27.00000000000000000000,0.00019222999999999999
27.00000000000000000000,0.00017629100000000000
28.00000000000000000000,0.00013915400000000000
28.00000000000000000000,0.00007024200000000000
28.00000000000000000000,0.00000337170000000000
28.00000000000000000000,-0.00001719870000000000
28.00000000000000000000,0.00000404308000000000
28.00000000000000000000,0.00002908330000000000
28.00000000000000000000,0.00003193080000000000
28.00000000000000000000,0.00001963690000000000
28.00000000000000000000,0.00001083900000000000
28.00000000000000000000,0.00000836450000000000
28.00000000000000000000,-0.00000007379090000000
28.00000000000000000000,-0.00002917930000000000
28.00000000000000000000,-0.00009586380000000000
28.00000000000000000000,-0.00015843199999999999
28.00000000000000000000,-0.00009692820000000000
28.00000000000000000000,0.00010922500000000000
28.00000000000000000000,0.00033011999999999999
28.00000000000000000000,0.00043625800000000002
28.00000000000000000000,0.00039014600000000001
28.00000000000000000000,0.00023995700000000001
29.00000000000000000000,0.00008666979999999999
29.00000000000000000000,0.00001138590000000000
29.00000000000000000000,0.00001081760000000000
29.00000000000000000000,0.00003044770000000000
29.00000000000000000000,0.00003231190000000000
29.00000000000000000000,0.00000708866000000000
29.00000000000000000000,-0.00004792340000000000
29.00000000000000000000,-0.00013591600000000000
29.00000000000000000000,-0.00025530099999999999
29.00000000000000000000,-0.00036878699999999998
29.00000000000000000000,-0.00039001900000000002
29.00000000000000000000,-0.00029294500000000002
29.00000000000000000000,-0.00017296900000000000
29.00000000000000000000,-0.00009952170000000001
29.00000000000000000000,-0.00005583600000000000
29.00000000000000000000,-0.00005302130000000000
29.00000000000000000000,-0.00011022600000000000
29.00000000000000000000,-0.00016997400000000001
29.00000000000000000000,-0.00017845599999999999
29.00000000000000000000,-0.00014108999999999999
30.00000000000000000000,-0.00011252400000000000
30.00000000000000000000,-0.00010296300000000000
30.00000000000000000000,-0.00003105840000000000
30.00000000000000000000,0.00012050700000000000
30.00000000000000000000,0.00028989400000000001
30.00000000000000000000,0.00042375699999999997
30.00000000000000000000,0.00050382800000000000
30.00000000000000000000,0.00051312500000000002
30.00000000000000000000,0.00044478900000000001
30.00000000000000000000,0.00032697899999999997
30.00000000000000000000,0.00020892700000000000
30.00000000000000000000,0.00012243700000000001
30.00000000000000000000,0.00006607539999999999
30.00000000000000000000,0.00002803770000000000
30.00000000000000000000,-0.00000064376600000000
30.00000000000000000000,-0.00002128950000000000
30.00000000000000000000,-0.00004288000000000000
30.00000000000000000000,-0.00007154590000000000
30.00000000000000000000,-0.00010118199999999999
30.00000000000000000000,-0.00010595100000000000
31.00000000000000000000,-0.00007229609999999999
31.00000000000000000000,-0.00000454353000000000
31.00000000000000000000,0.00009165290000000000
31.00000000000000000000,0.00019663400000000000
31.00000000000000000000,0.00025590299999999998
31.00000000000000000000,0.00019916300000000000
31.00000000000000000000,0.00005440480000000000
31.00000000000000000000,-0.00003035330000000000
31.00000000000000000000,0.00003495070000000000
31.00000000000000000000,0.00019428600000000000
31.00000000000000000000,0.00034328700000000001
31.00000000000000000000,0.00042721499999999999
31.00000000000000000000,0.00042855699999999998
31.00000000000000000000,0.00035121600000000001
31.00000000000000000000,0.00024098800000000000
31.00000000000000000000,0.00015715900000000000
31.00000000000000000000,0.00012394300000000000
31.00000000000000000000,0.00011635500000000001
31.00000000000000000000,0.00007570760000000000
31.00000000000000000000,-0.00003331770000000000
32.00000000000000000000,-0.00016251800000000000
32.00000000000000000000,-0.00024852300000000001
32.00000000000000000000,-0.00029785800000000002
32.00000000000000000000,-0.00033339300000000002
32.00000000000000000000,-0.00036591100000000001
32.00000000000000000000,-0.00042879000000000002
32.00000000000000000000,-0.00050053499999999998
32.00000000000000000000,-0.00049288700000000001
32.00000000000000000000,-0.00037914300000000003
32.00000000000000000000,-0.00023120700000000001
32.00000000000000000000,-0.00013268500000000001
32.00000000000000000000,-0.00007837910000000000
32.00000000000000000000,0.00000019693500000000
32.00000000000000000000,0.00012373899999999999
32.00000000000000000000,0.00025297200000000002
32.00000000000000000000,0.00033967200000000001
32.00000000000000000000,0.00036297199999999998
32.00000000000000000000,0.00033355000000000000
32.00000000000000000000,0.00028363400000000000
32.00000000000000000000,0.00023987699999999999
33.00000000000000000000,0.00020470500000000001
33.00000000000000000000,0.00014598399999999999
33.00000000000000000000,-0.00000616614000000000
33.00000000000000000000,-0.00027349200000000002
33.00000000000000000000,-0.00051657799999999996
33.00000000000000000000,-0.00053910099999999995
33.00000000000000000000,-0.00032177799999999999
33.00000000000000000000,-0.00001610700000000000
33.00000000000000000000,0.00025254400000000000
33.00000000000000000000,0.00045426100000000002
33.00000000000000000000,0.00058240300000000000
33.00000000000000000000,0.00062621599999999997
33.00000000000000000000,0.00058812000000000003
33.00000000000000000000,0.00049852800000000004
33.00000000000000000000,0.00039749600000000000
33.00000000000000000000,0.00030034099999999998
33.00000000000000000000,0.00020350300000000001
33.00000000000000000000,0.00006817440000000000
33.00000000000000000000,-0.00013929300000000000
33.00000000000000000000,-0.00033153700000000002
34.00000000000000000000,-0.00038512699999999997
34.00000000000000000000,-0.00029188599999999999
34.00000000000000000000,-0.00013861099999999999
34.00000000000000000000,-0.00001113100000000000
34.00000000000000000000,0.00005631870000000000
34.00000000000000000000,0.00006697410000000001
34.00000000000000000000,0.00003737710000000000
34.00000000000000000000,-0.00002825560000000000
34.00000000000000000000,-0.00011578600000000001
34.00000000000000000000,-0.00016399700000000001
34.00000000000000000000,-0.00011637700000000000
34.00000000000000000000,0.00000697361000000000
34.00000000000000000000,0.00013668200000000000
34.00000000000000000000,0.00022020600000000000
34.00000000000000000000,0.00024974300000000002
34.00000000000000000000,0.00024759899999999999
34.00000000000000000000,0.00022481000000000001
34.00000000000000000000,0.00017419500000000001
34.00000000000000000000,0.00009973320000000000
34.00000000000000000000,0.00002975640000000000
35.00000000000000000000,0.00000274615000000000
35.00000000000000000000,0.00001856140000000000
35.00000000000000000000,0.00003731120000000000
35.00000000000000000000,0.00003081810000000000
35.00000000000000000000,-0.00001350080000000000
35.00000000000000000000,-0.00011564800000000000
35.00000000000000000000,-0.00025602600000000002
35.00000000000000000000,-0.00033353400000000002
35.00000000000000000000,-0.00028249599999999997
35.00000000000000000000,-0.00014186000000000000
35.00000000000000000000,0.00000926860000000000
35.00000000000000000000,0.00012357800000000000
35.00000000000000000000,0.00019946600000000000
35.00000000000000000000,0.00025243999999999999
35.00000000000000000000,0.00028329700000000001
35.00000000000000000000,0.00028621700000000001
35.00000000000000000000,0.00027677099999999998
35.00000000000000000000,0.00027026699999999998
35.00000000000000000000,0.00026038500000000002
35.00000000000000000000,0.00023204000000000001
36.00000000000000000000,0.00018533300000000001
36.00000000000000000000,0.00013810200000000000
36.00000000000000000000,0.00010935400000000000
36.00000000000000000000,0.00009660509999999999
36.00000000000000000000,0.00008656600000000000
36.00000000000000000000,0.00007137160000000001
36.00000000000000000000,0.00005086690000000000
36.00000000000000000000,0.00002618730000000000
36.00000000000000000000,-0.00001956670000000000
36.00000000000000000000,-0.00011944599999999999
36.00000000000000000000,-0.00024816999999999998
36.00000000000000000000,-0.00031034400000000000
36.00000000000000000000,-0.00026363299999999999
36.00000000000000000000,-0.00017627100000000001
36.00000000000000000000,-0.00010595200000000000
36.00000000000000000000,-0.00001940820000000000
36.00000000000000000000,0.00008294360000000000
36.00000000000000000000,0.00009860040000000000
36.00000000000000000000,-0.00004994340000000000
36.00000000000000000000,-0.00025148599999999998
37.00000000000000000000,-0.00029397000000000001
37.00000000000000000000,-0.00012580999999999999
37.00000000000000000000,0.00011669900000000000
37.00000000000000000000,0.00028255600000000000
37.00000000000000000000,0.00032002799999999998
37.00000000000000000000,0.00028567900000000000
37.00000000000000000000,0.00028157300000000002
37.00000000000000000000,0.00034869200000000000
37.00000000000000000000,0.00047335900000000002
37.00000000000000000000,0.00062042900000000003
37.00000000000000000000,0.00071193400000000000
37.00000000000000000000,0.00063895000000000000
37.00000000000000000000,0.00036259399999999999
37.00000000000000000000,0.00004371060000000000
37.00000000000000000000,-0.00011820900000000001
37.00000000000000000000,-0.00016489700000000000
37.00000000000000000000,-0.00020752200000000000
37.00000000000000000000,-0.00025195200000000000
37.00000000000000000000,-0.00029186899999999999
37.00000000000000000000,-0.00032810800000000002
38.00000000000000000000,-0.00037710800000000002
38.00000000000000000000,-0.00045444399999999997
38.00000000000000000000,-0.00052820500000000002
38.00000000000000000000,-0.00052065599999999998
38.00000000000000000000,-0.00042712799999999998
38.00000000000000000000,-0.00029959799999999999
38.00000000000000000000,-0.00018684400000000000
38.00000000000000000000,-0.00010503200000000001
38.00000000000000000000,-0.00005792000000000000
38.00000000000000000000,-0.00004380430000000000
38.00000000000000000000,-0.00004084760000000000
38.00000000000000000000,-0.00002918650000000000
38.00000000000000000000,-0.00000237576000000000
38.00000000000000000000,0.00003249220000000000
38.00000000000000000000,0.00006625450000000000
38.00000000000000000000,0.00009330220000000000
38.00000000000000000000,0.00013274500000000000
38.00000000000000000000,0.00017745799999999999
38.00000000000000000000,0.00018255300000000001
38.00000000000000000000,0.00010904300000000001
39.00000000000000000000,0.00000975234000000000
39.00000000000000000000,-0.00001794170000000000
39.00000000000000000000,0.00003663140000000000
39.00000000000000000000,0.00012709099999999999
39.00000000000000000000,0.00020936400000000000
39.00000000000000000000,0.00026583299999999999
39.00000000000000000000,0.00030276100000000002
39.00000000000000000000,0.00030405400000000000
39.00000000000000000000,0.00027329600000000002
39.00000000000000000000,0.00023449399999999999
39.00000000000000000000,0.00020867400000000000
39.00000000000000000000,0.00018339800000000001
39.00000000000000000000,0.00013381400000000000
39.00000000000000000000,0.00004550230000000000
39.00000000000000000000,-0.00008849550000000001
39.00000000000000000000,-0.00025745700000000000
39.00000000000000000000,-0.00040632199999999998
39.00000000000000000000,-0.00045156900000000003
39.00000000000000000000,-0.00034116700000000002
39.00000000000000000000,-0.00008847840000000000
40.00000000000000000000,0.00019813099999999999
40.00000000000000000000,0.00037754200000000003
40.00000000000000000000,0.00038727899999999998
40.00000000000000000000,0.00029844600000000001
40.00000000000000000000,0.00023462700000000000
40.00000000000000000000,0.00028933300000000002
40.00000000000000000000,0.00045629500000000001
40.00000000000000000000,0.00063717299999999999
40.00000000000000000000,0.00071009500000000000
40.00000000000000000000,0.00064351299999999996
40.00000000000000000000,0.00049089700000000001
40.00000000000000000000,0.00030569700000000001
40.00000000000000000000,0.00013590799999999999
40.00000000000000000000,-0.00000177117000000000
40.00000000000000000000,-0.00010797700000000000
40.00000000000000000000,-0.00018640099999999999
40.00000000000000000000,-0.00024308700000000001
40.00000000000000000000,-0.00027848700000000001
40.00000000000000000000,-0.00029178700000000000
40.00000000000000000000,-0.00028857600000000002
41.00000000000000000000,-0.00026813500000000002
41.00000000000000000000,-0.00023074000000000000
41.00000000000000000000,-0.00019881400000000001
41.00000000000000000000,-0.00021015699999999999
41.00000000000000000000,-0.00027631100000000000
41.00000000000000000000,-0.00032909200000000001
41.00000000000000000000,-0.00027560799999999999
41.00000000000000000000,-0.00011592899999999999
41.00000000000000000000,0.00005735610000000000
41.00000000000000000000,0.00017071700000000000
41.00000000000000000000,0.00021099100000000000
41.00000000000000000000,0.00018006399999999999
41.00000000000000000000,0.00009897600000000000
41.00000000000000000000,0.00003338120000000000
41.00000000000000000000,0.00001975840000000000
41.00000000000000000000,0.00004166480000000000
41.00000000000000000000,0.00007462919999999999
41.00000000000000000000,0.00011240599999999999
41.00000000000000000000,0.00016309300000000001
41.00000000000000000000,0.00022135000000000001
42.00000000000000000000,0.00025085199999999998
42.00000000000000000000,0.00023065299999999999
42.00000000000000000000,0.00021994000000000001
42.00000000000000000000,0.00024592400000000001
42.00000000000000000000,0.00021469900000000000
42.00000000000000000000,0.00007374740000000000
42.00000000000000000000,-0.00005839810000000000
42.00000000000000000000,-0.00005961370000000000
42.00000000000000000000,0.00005319330000000000
42.00000000000000000000,0.00019906500000000001
42.00000000000000000000,0.00033110600000000001
42.00000000000000000000,0.00041818399999999999
42.00000000000000000000,0.00038677600000000003
42.00000000000000000000,0.00015491600000000001
42.00000000000000000000,-0.00022744400000000001
42.00000000000000000000,-0.00051756199999999995
42.00000000000000000000,-0.00048539999999999998
42.00000000000000000000,-0.00013955400000000001
42.00000000000000000000,0.00028449800000000000
42.00000000000000000000,0.00055555000000000003
43.00000000000000000000,0.00063849200000000005
43.00000000000000000000,0.00059127099999999998
43.00000000000000000000,0.00045190100000000000
43.00000000000000000000,0.00025743899999999999
43.00000000000000000000,0.00006542870000000001
43.00000000000000000000,-0.00007517400000000000
43.00000000000000000000,-0.00017453100000000001
43.00000000000000000000,-0.00027360100000000000
43.00000000000000000000,-0.00041265699999999998
43.00000000000000000000,-0.00054609199999999998
43.00000000000000000000,-0.00057461800000000005
43.00000000000000000000,-0.00049131499999999998
43.00000000000000000000,-0.00037676499999999999
43.00000000000000000000,-0.00029131799999999999
43.00000000000000000000,-0.00020724700000000000
43.00000000000000000000,-0.00009441560000000000
43.00000000000000000000,0.00002927620000000000
43.00000000000000000000,0.00013973400000000000
43.00000000000000000000,0.00022145400000000000
43.00000000000000000000,0.00025749200000000001
44.00000000000000000000,0.00024476700000000001
44.00000000000000000000,0.00020651600000000001
44.00000000000000000000,0.00016521000000000000
44.00000000000000000000,0.00012322599999999999
44.00000000000000000000,0.00006454270000000000
44.00000000000000000000,-0.00004461050000000000
44.00000000000000000000,-0.00018095000000000001
44.00000000000000000000,-0.00023330300000000000
44.00000000000000000000,-0.00018142200000000001
44.00000000000000000000,-0.00013028399999999999
44.00000000000000000000,-0.00010728100000000001
44.00000000000000000000,-0.00004329110000000000
44.00000000000000000000,0.00006964290000000000
44.00000000000000000000,0.00018298899999999999
44.00000000000000000000,0.00025842100000000000
44.00000000000000000000,0.00030495499999999998
44.00000000000000000000,0.00034483799999999998
44.00000000000000000000,0.00038698800000000000
44.00000000000000000000,0.00041325900000000002
44.00000000000000000000,0.00034627900000000001
45.00000000000000000000,0.00017100899999999999
45.00000000000000000000,0.00001745780000000000
45.00000000000000000000,-0.00000660808000000000
45.00000000000000000000,0.00000070858400000000
45.00000000000000000000,-0.00010626300000000000
45.00000000000000000000,-0.00035726600000000002
45.00000000000000000000,-0.00073054499999999998
45.00000000000000000000,-0.00102899999999999997
45.00000000000000000000,-0.00086821100000000003
45.00000000000000000000,-0.00019541700000000000
45.00000000000000000000,0.00058592200000000001
45.00000000000000000000,0.00106839000000000001
45.00000000000000000000,0.00116952000000000006
45.00000000000000000000,0.00103499999999999990
45.00000000000000000000,0.00074014999999999997
45.00000000000000000000,0.00033526699999999999
45.00000000000000000000,-0.00004773360000000000
45.00000000000000000000,-0.00032811299999999999
45.00000000000000000000,-0.00050374500000000000
45.00000000000000000000,-0.00058605899999999999
46.00000000000000000000,-0.00060751800000000003
46.00000000000000000000,-0.00058709799999999998
46.00000000000000000000,-0.00054392500000000001
46.00000000000000000000,-0.00048520300000000002
46.00000000000000000000,-0.00042786000000000001
46.00000000000000000000,-0.00037487399999999998
46.00000000000000000000,-0.00030752999999999998
46.00000000000000000000,-0.00020658900000000000
46.00000000000000000000,-0.00008084880000000000
46.00000000000000000000,0.00003174900000000000
46.00000000000000000000,0.00011085800000000000
46.00000000000000000000,0.00017233999999999999
46.00000000000000000000,0.00024701800000000000
46.00000000000000000000,0.00032041799999999999
46.00000000000000000000,0.00035403600000000001
46.00000000000000000000,0.00033663100000000000
46.00000000000000000000,0.00029838400000000001
46.00000000000000000000,0.00022065999999999999
46.00000000000000000000,0.00007056150000000000
46.00000000000000000000,-0.00005653470000000000
47.00000000000000000000,-0.00002773130000000000
47.00000000000000000000,0.00014558900000000000
47.00000000000000000000,0.00036120400000000001
47.00000000000000000000,0.00048945800000000002
47.00000000000000000000,0.00055865799999999996
47.00000000000000000000,0.00068356999999999999
47.00000000000000000000,0.00079939699999999998
47.00000000000000000000,0.00078095300000000003
47.00000000000000000000,0.00061672300000000001
47.00000000000000000000,0.00039929300000000000
47.00000000000000000000,0.00023524200000000001
47.00000000000000000000,0.00014668000000000000
47.00000000000000000000,0.00005812940000000000
47.00000000000000000000,-0.00006235610000000000
47.00000000000000000000,-0.00014611600000000001
47.00000000000000000000,-0.00013512900000000000
47.00000000000000000000,-0.00006042850000000000
47.00000000000000000000,0.00002848100000000000
47.00000000000000000000,0.00010464299999999999
47.00000000000000000000,0.00013858200000000000
48.00000000000000000000,0.00009623830000000000
48.00000000000000000000,0.00001931480000000000
48.00000000000000000000,0.00000354960000000000
48.00000000000000000000,0.00005721840000000000
48.00000000000000000000,0.00010714800000000000
48.00000000000000000000,0.00009805100000000000
48.00000000000000000000,0.00001463420000000000
48.00000000000000000000,-0.00012028100000000000
48.00000000000000000000,-0.00031346999999999999
48.00000000000000000000,-0.00057806000000000003
48.00000000000000000000,-0.00071062399999999998
48.00000000000000000000,-0.00057292200000000001
48.00000000000000000000,-0.00032005299999999999
48.00000000000000000000,-0.00011674200000000000
48.00000000000000000000,-0.00001899430000000000
48.00000000000000000000,-0.00003559580000000000
48.00000000000000000000,-0.00023205400000000001
48.00000000000000000000,-0.00052548899999999997
48.00000000000000000000,-0.00065535699999999997
48.00000000000000000000,-0.00048760100000000000
49.00000000000000000000,-0.00013275099999999999
49.00000000000000000000,0.00022578100000000001
49.00000000000000000000,0.00047931999999999998
49.00000000000000000000,0.00058005299999999997
49.00000000000000000000,0.00051093999999999998
49.00000000000000000000,0.00030430600000000001
49.00000000000000000000,0.00008850330000000000
49.00000000000000000000,-0.00000440483000000000
49.00000000000000000000,0.00002496410000000000
49.00000000000000000000,0.00007056360000000000
49.00000000000000000000,0.00009064770000000000
49.00000000000000000000,0.00010640600000000000
49.00000000000000000000,0.00012146200000000000
49.00000000000000000000,0.00012113000000000000
49.00000000000000000000,0.00011324400000000000
49.00000000000000000000,0.00010187700000000000
49.00000000000000000000,0.00007488090000000000
49.00000000000000000000,0.00003549390000000000
49.00000000000000000000,-0.00000618197000000000
49.00000000000000000000,-0.00006154730000000001
50.00000000000000000000,-0.00011527100000000000
50.00000000000000000000,-0.00013558600000000001
50.00000000000000000000,-0.00010734800000000000
50.00000000000000000000,-0.00005613000000000000
50.00000000000000000000,-0.00004788200000000000
50.00000000000000000000,-0.00008332269999999999
50.00000000000000000000,-0.00008012850000000000
50.00000000000000000000,0.00000813674000000000
50.00000000000000000000,0.00013749300000000001
50.00000000000000000000,0.00024867500000000001
50.00000000000000000000,0.00031740799999999998
50.00000000000000000000,0.00034771900000000002
50.00000000000000000000,0.00035105700000000000
50.00000000000000000000,0.00031887000000000001
50.00000000000000000000,0.00020138999999999999
50.00000000000000000000,0.00001058180000000000
50.00000000000000000000,-0.00010645300000000001
50.00000000000000000000,-0.00004709430000000000
50.00000000000000000000,0.00011189299999999999
50.00000000000000000000,0.00025489200000000000
51.00000000000000000000,0.00034841599999999999
51.00000000000000000000,0.00041954999999999998
51.00000000000000000000,0.00047650200000000001
51.00000000000000000000,0.00047321499999999997
51.00000000000000000000,0.00036901399999999997
51.00000000000000000000,0.00020477200000000001
51.00000000000000000000,0.00001917960000000000
51.00000000000000000000,-0.00012962000000000000
51.00000000000000000000,-0.00013677000000000001
51.00000000000000000000,-0.00004017470000000000
51.00000000000000000000,0.00003105250000000000
51.00000000000000000000,0.00007837310000000000
51.00000000000000000000,0.00014753999999999999
51.00000000000000000000,0.00018194300000000000
51.00000000000000000000,0.00013142199999999999
51.00000000000000000000,0.00004309380000000000
51.00000000000000000000,-0.00000106987000000000
51.00000000000000000000,0.00000971904000000000
51.00000000000000000000,0.00002413960000000000
51.00000000000000000000,-0.00000619313000000000
52.00000000000000000000,-0.00010668899999999999
52.00000000000000000000,-0.00024120899999999999
52.00000000000000000000,-0.00027135400000000002
52.00000000000000000000,-0.00012935200000000000
52.00000000000000000000,0.00003838090000000000
52.00000000000000000000,-0.00000734117000000000
52.00000000000000000000,-0.00045345299999999998
52.00000000000000000000,-0.00127361000000000011
52.00000000000000000000,-0.00188156999999999994
52.00000000000000000000,-0.00162677000000000004
52.00000000000000000000,-0.00075670100000000003
52.00000000000000000000,0.00006996710000000000
52.00000000000000000000,0.00077846299999999996
52.00000000000000000000,0.00143581000000000004
52.00000000000000000000,0.00182047999999999997
52.00000000000000000000,0.00177108999999999990
52.00000000000000000000,0.00134644999999999990
52.00000000000000000000,0.00079352000000000003
52.00000000000000000000,0.00024634700000000000
52.00000000000000000000,-0.00021355199999999999
53.00000000000000000000,-0.00054818900000000003
53.00000000000000000000,-0.00074144499999999997
53.00000000000000000000,-0.00080829299999999997
53.00000000000000000000,-0.00077645700000000004
53.00000000000000000000,-0.00067511600000000002
53.00000000000000000000,-0.00054984999999999995
53.00000000000000000000,-0.00044000799999999998
53.00000000000000000000,-0.00037773800000000002
53.00000000000000000000,-0.00033749600000000001
53.00000000000000000000,-0.00027794000000000001
53.00000000000000000000,-0.00016514100000000000
53.00000000000000000000,-0.00002532560000000000
53.00000000000000000000,0.00012261100000000001
53.00000000000000000000,0.00026496400000000002
53.00000000000000000000,0.00038635800000000000
53.00000000000000000000,0.00044470000000000002
53.00000000000000000000,0.00044447600000000002
53.00000000000000000000,0.00041371300000000001
53.00000000000000000000,0.00037205799999999998
53.00000000000000000000,0.00031316999999999998
54.00000000000000000000,0.00020118800000000001
54.00000000000000000000,0.00000353105000000000
54.00000000000000000000,-0.00014600000000000000
54.00000000000000000000,-0.00010003000000000000
54.00000000000000000000,0.00007982429999999999
54.00000000000000000000,0.00024509500000000002
54.00000000000000000000,0.00032863300000000000
54.00000000000000000000,0.00034743200000000000
54.00000000000000000000,0.00028305700000000002
54.00000000000000000000,0.00011356400000000000
54.00000000000000000000,-0.00006292640000000000
54.00000000000000000000,-0.00009665080000000001
54.00000000000000000000,0.00000138991000000000
54.00000000000000000000,0.00010963200000000000
54.00000000000000000000,0.00017370700000000000
54.00000000000000000000,0.00025279200000000000
54.00000000000000000000,0.00036439399999999998
54.00000000000000000000,0.00041050700000000001
54.00000000000000000000,0.00022020100000000000
54.00000000000000000000,-0.00022944900000000000
55.00000000000000000000,-0.00059879800000000000
55.00000000000000000000,-0.00049444599999999995
55.00000000000000000000,0.00000731571000000000
55.00000000000000000000,0.00053229000000000004
55.00000000000000000000,0.00086935900000000000
55.00000000000000000000,0.00096816999999999997
55.00000000000000000000,0.00084708099999999996
55.00000000000000000000,0.00059756100000000003
55.00000000000000000000,0.00033716200000000001
55.00000000000000000000,0.00015513100000000000
55.00000000000000000000,0.00005264690000000000
55.00000000000000000000,-0.00000934222000000000
55.00000000000000000000,-0.00007256229999999999
55.00000000000000000000,-0.00013684600000000001
55.00000000000000000000,-0.00018450100000000000
55.00000000000000000000,-0.00023847199999999999
55.00000000000000000000,-0.00034771800000000001
55.00000000000000000000,-0.00048166200000000000
55.00000000000000000000,-0.00055486200000000004
55.00000000000000000000,-0.00053056399999999997
56.00000000000000000000,-0.00039195700000000002
56.00000000000000000000,-0.00015944900000000001
56.00000000000000000000,0.00008537799999999999
56.00000000000000000000,0.00024667700000000000
56.00000000000000000000,0.00029991300000000001
56.00000000000000000000,0.00026402400000000002
56.00000000000000000000,0.00014395500000000000
56.00000000000000000000,-0.00005978620000000000
56.00000000000000000000,-0.00025978600000000002
56.00000000000000000000,-0.00033779300000000002
56.00000000000000000000,-0.00024381899999999999
56.00000000000000000000,-0.00001489120000000000
56.00000000000000000000,0.00020829600000000001
56.00000000000000000000,0.00032631199999999999
56.00000000000000000000,0.00033835000000000001
56.00000000000000000000,0.00025820999999999998
56.00000000000000000000,0.00012467700000000001
56.00000000000000000000,-0.00002838840000000000
56.00000000000000000000,-0.00015416000000000000
56.00000000000000000000,-0.00022352200000000001
57.00000000000000000000,-0.00025102700000000002
57.00000000000000000000,-0.00031114499999999998
57.00000000000000000000,-0.00044873100000000001
57.00000000000000000000,-0.00052546400000000001
57.00000000000000000000,-0.00034483600000000000
57.00000000000000000000,0.00008892600000000000
57.00000000000000000000,0.00054824300000000002
57.00000000000000000000,0.00076712700000000004
57.00000000000000000000,0.00058248399999999997
57.00000000000000000000,-0.00000932347000000000
57.00000000000000000000,-0.00067795400000000003
57.00000000000000000000,-0.00077553200000000000
57.00000000000000000000,-0.00008320470000000001
57.00000000000000000000,0.00086788299999999996
57.00000000000000000000,0.00148007999999999994
57.00000000000000000000,0.00160085000000000002
57.00000000000000000000,0.00133543000000000008
57.00000000000000000000,0.00079383999999999998
57.00000000000000000000,0.00016706600000000000
57.00000000000000000000,-0.00027767699999999999
58.00000000000000000000,-0.00052034800000000001
58.00000000000000000000,-0.00067799799999999997
58.00000000000000000000,-0.00077794400000000003
58.00000000000000000000,-0.00082619799999999999
58.00000000000000000000,-0.00081426399999999998
58.00000000000000000000,-0.00074617200000000002
58.00000000000000000000,-0.00064049500000000004
58.00000000000000000000,-0.00055269700000000000
58.00000000000000000000,-0.00050118000000000005
58.00000000000000000000,-0.00045617100000000001
58.00000000000000000000,-0.00038461300000000001
58.00000000000000000000,-0.00029289099999999998
58.00000000000000000000,-0.00019543100000000001
58.00000000000000000000,-0.00006748510000000000
58.00000000000000000000,0.00010770500000000000
58.00000000000000000000,0.00029331200000000000
58.00000000000000000000,0.00043582400000000002
58.00000000000000000000,0.00053006600000000004
58.00000000000000000000,0.00055330699999999995
58.00000000000000000000,0.00041944500000000001
59.00000000000000000000,0.00008447750000000001
59.00000000000000000000,-0.00035103899999999998
59.00000000000000000000,-0.00085386900000000005
59.00000000000000000000,-0.00133201000000000001
59.00000000000000000000,-0.00120454999999999998
59.00000000000000000000,-0.00018589600000000001
59.00000000000000000000,0.00101533000000000005
59.00000000000000000000,0.00174274000000000000
59.00000000000000000000,0.00192173999999999991
59.00000000000000000000,0.00172498000000000009
59.00000000000000000000,0.00135045999999999994
59.00000000000000000000,0.00091207599999999995
59.00000000000000000000,0.00049501000000000005
59.00000000000000000000,0.00009750670000000001
59.00000000000000000000,-0.00027881100000000001
59.00000000000000000000,-0.00050896399999999999
59.00000000000000000000,-0.00048901299999999995
59.00000000000000000000,-0.00031530000000000002
59.00000000000000000000,-0.00015776399999999999
59.00000000000000000000,-0.00010071100000000001
60.00000000000000000000,-0.00012347100000000000
60.00000000000000000000,-0.00018236300000000000
60.00000000000000000000,-0.00022664899999999999
60.00000000000000000000,-0.00021088300000000001
60.00000000000000000000,-0.00017245100000000001
60.00000000000000000000,-0.00023442700000000000
60.00000000000000000000,-0.00039618500000000002
60.00000000000000000000,-0.00041323000000000000
60.00000000000000000000,-0.00018315399999999999
60.00000000000000000000,0.00007468920000000000
60.00000000000000000000,0.00021067199999999999
60.00000000000000000000,0.00030559899999999999
60.00000000000000000000,0.00046348199999999998
60.00000000000000000000,0.00062569899999999996
60.00000000000000000000,0.00061160700000000001
60.00000000000000000000,0.00043759900000000000
60.00000000000000000000,0.00028525700000000002
60.00000000000000000000,0.00026808799999999999
60.00000000000000000000,0.00038994399999999998
60.00000000000000000000,0.00054851200000000002
61.00000000000000000000,0.00066838200000000003
61.00000000000000000000,0.00071032199999999999
61.00000000000000000000,0.00057223899999999999
61.00000000000000000000,0.00024028000000000000
61.00000000000000000000,0.00000720102000000000
61.00000000000000000000,0.00013327700000000000
61.00000000000000000000,0.00043363499999999998
61.00000000000000000000,0.00058938100000000004
61.00000000000000000000,0.00052856599999999995
61.00000000000000000000,0.00031853099999999999
61.00000000000000000000,-0.00002171210000000000
61.00000000000000000000,-0.00039241200000000002
61.00000000000000000000,-0.00060746400000000005
61.00000000000000000000,-0.00062600500000000001
61.00000000000000000000,-0.00056033099999999996
61.00000000000000000000,-0.00048546000000000000
61.00000000000000000000,-0.00040080100000000000
61.00000000000000000000,-0.00033279700000000002
61.00000000000000000000,-0.00031868100000000002
61.00000000000000000000,-0.00033600500000000001
62.00000000000000000000,-0.00036663100000000002
62.00000000000000000000,-0.00041225499999999999
62.00000000000000000000,-0.00047350499999999999
62.00000000000000000000,-0.00055911899999999996
62.00000000000000000000,-0.00071228199999999995
62.00000000000000000000,-0.00105159000000000003
62.00000000000000000000,-0.00157181000000000009
62.00000000000000000000,-0.00182693999999999999
62.00000000000000000000,-0.00141083000000000007
62.00000000000000000000,-0.00065643899999999998
62.00000000000000000000,-0.00014619500000000001
62.00000000000000000000,0.00015293899999999999
62.00000000000000000000,0.00066024800000000000
62.00000000000000000000,0.00135625000000000003
62.00000000000000000000,0.00186017999999999991
62.00000000000000000000,0.00195672999999999984
62.00000000000000000000,0.00170991000000000003
62.00000000000000000000,0.00128460000000000011
62.00000000000000000000,0.00083836200000000005
62.00000000000000000000,0.00042691300000000001
63.00000000000000000000,0.00007539850000000001
63.00000000000000000000,-0.00005525100000000000
63.00000000000000000000,0.00012612200000000000
63.00000000000000000000,0.00042748299999999999
63.00000000000000000000,0.00058828799999999996
63.00000000000000000000,0.00051816700000000004
63.00000000000000000000,0.00029651100000000001
63.00000000000000000000,0.00005511980000000000
63.00000000000000000000,-0.00015470999999999999
63.00000000000000000000,-0.00032029800000000000
63.00000000000000000000,-0.00043010100000000001
63.00000000000000000000,-0.00047490599999999998
63.00000000000000000000,-0.00049454700000000002
63.00000000000000000000,-0.00054418900000000004
63.00000000000000000000,-0.00056744700000000000
63.00000000000000000000,-0.00048986799999999997
63.00000000000000000000,-0.00034780700000000000
63.00000000000000000000,-0.00021915500000000001
63.00000000000000000000,-0.00017371100000000000
63.00000000000000000000,-0.00027669899999999999
64.00000000000000000000,-0.00044604500000000000
64.00000000000000000000,-0.00038721500000000000
64.00000000000000000000,0.00006131780000000000
64.00000000000000000000,0.00070001899999999997
64.00000000000000000000,0.00121006000000000000
64.00000000000000000000,0.00142668000000000005
64.00000000000000000000,0.00132747000000000008
64.00000000000000000000,0.00094593900000000002
64.00000000000000000000,0.00042247299999999998
64.00000000000000000000,0.00002147260000000000
64.00000000000000000000,-0.00012030400000000001
64.00000000000000000000,-0.00007834830000000000
64.00000000000000000000,0.00001740920000000000
64.00000000000000000000,0.00004169530000000000
64.00000000000000000000,-0.00005766790000000000
64.00000000000000000000,-0.00022735900000000000
64.00000000000000000000,-0.00038551900000000002
64.00000000000000000000,-0.00050482499999999998
64.00000000000000000000,-0.00061381399999999996
64.00000000000000000000,-0.00073829199999999998
65.00000000000000000000,-0.00079383999999999998
65.00000000000000000000,-0.00076427500000000002
65.00000000000000000000,-0.00080397900000000002
65.00000000000000000000,-0.00087394399999999998
65.00000000000000000000,-0.00073520300000000003
65.00000000000000000000,-0.00035402500000000000
65.00000000000000000000,0.00005795580000000000
65.00000000000000000000,0.00031507900000000001
65.00000000000000000000,0.00039343800000000002
65.00000000000000000000,0.00032028299999999998
65.00000000000000000000,0.00003652160000000000
65.00000000000000000000,-0.00050244999999999999
65.00000000000000000000,-0.00103125999999999999
65.00000000000000000000,-0.00105890999999999993
65.00000000000000000000,-0.00044533799999999998
65.00000000000000000000,0.00040893599999999999
65.00000000000000000000,0.00105926999999999996
65.00000000000000000000,0.00133428999999999991
65.00000000000000000000,0.00124652000000000009
65.00000000000000000000,0.00094976800000000003
66.00000000000000000000,0.00065710200000000001
66.00000000000000000000,0.00047008899999999998
66.00000000000000000000,0.00036032900000000000
66.00000000000000000000,0.00033648199999999998
66.00000000000000000000,0.00032216800000000001
66.00000000000000000000,0.00011469299999999999
66.00000000000000000000,-0.00023597599999999999
66.00000000000000000000,-0.00037759799999999999
66.00000000000000000000,-0.00009139640000000000
66.00000000000000000000,0.00039339600000000001
66.00000000000000000000,0.00065734400000000003
66.00000000000000000000,0.00065321400000000005
66.00000000000000000000,0.00063744900000000000
66.00000000000000000000,0.00067533899999999995
66.00000000000000000000,0.00073633100000000001
66.00000000000000000000,0.00083670399999999996
66.00000000000000000000,0.00091473699999999999
66.00000000000000000000,0.00084007699999999995
66.00000000000000000000,0.00058771599999999995
66.00000000000000000000,0.00025036600000000002
67.00000000000000000000,-0.00007614689999999999
67.00000000000000000000,-0.00035249199999999999
67.00000000000000000000,-0.00057006299999999999
67.00000000000000000000,-0.00071075700000000001
67.00000000000000000000,-0.00078102200000000003
67.00000000000000000000,-0.00079903400000000001
67.00000000000000000000,-0.00084389800000000004
67.00000000000000000000,-0.00099713699999999994
67.00000000000000000000,-0.00098427699999999998
67.00000000000000000000,-0.00052631399999999995
67.00000000000000000000,0.00011928600000000000
67.00000000000000000000,0.00055675400000000002
67.00000000000000000000,0.00060683500000000001
67.00000000000000000000,0.00038150499999999997
67.00000000000000000000,0.00012489900000000001
67.00000000000000000000,-0.00003774470000000000
67.00000000000000000000,-0.00006024920000000000
67.00000000000000000000,0.00023347500000000000
67.00000000000000000000,0.00080725000000000002
67.00000000000000000000,0.00128577000000000010
68.00000000000000000000,0.00138178999999999993
68.00000000000000000000,0.00112513000000000001
68.00000000000000000000,0.00070896700000000002
68.00000000000000000000,0.00025349599999999997
68.00000000000000000000,-0.00017105899999999999
68.00000000000000000000,-0.00051541499999999997
68.00000000000000000000,-0.00074247799999999997
68.00000000000000000000,-0.00085118699999999999
68.00000000000000000000,-0.00087263700000000000
68.00000000000000000000,-0.00088421900000000000
68.00000000000000000000,-0.00094972800000000005
68.00000000000000000000,-0.00109201000000000003
68.00000000000000000000,-0.00125068000000000011
68.00000000000000000000,-0.00124091000000000002
68.00000000000000000000,-0.00092535000000000002
68.00000000000000000000,-0.00046272700000000002
68.00000000000000000000,-0.00007861550000000000
68.00000000000000000000,0.00015285200000000001
68.00000000000000000000,0.00025107500000000002
68.00000000000000000000,0.00027984300000000000
69.00000000000000000000,0.00027976400000000000
69.00000000000000000000,0.00024980400000000001
69.00000000000000000000,0.00013511600000000001
69.00000000000000000000,-0.00010701100000000000
69.00000000000000000000,-0.00040319599999999998
69.00000000000000000000,-0.00063447400000000000
69.00000000000000000000,-0.00069943000000000002
69.00000000000000000000,-0.00043137600000000003
69.00000000000000000000,0.00017099899999999999
69.00000000000000000000,0.00079509500000000000
69.00000000000000000000,0.00112878999999999996
69.00000000000000000000,0.00113014999999999990
69.00000000000000000000,0.00092483699999999997
69.00000000000000000000,0.00063857800000000000
69.00000000000000000000,0.00036228500000000001
69.00000000000000000000,0.00014080599999999999
69.00000000000000000000,-0.00004578530000000000
69.00000000000000000000,-0.00026934799999999998
69.00000000000000000000,-0.00053754300000000003
69.00000000000000000000,-0.00075509000000000004
70.00000000000000000000,-0.00084919800000000001
70.00000000000000000000,-0.00067498799999999996
70.00000000000000000000,-0.00020056200000000000
70.00000000000000000000,0.00029901500000000002
70.00000000000000000000,0.00060693200000000002
70.00000000000000000000,0.00073174899999999996
70.00000000000000000000,0.00067109600000000004
70.00000000000000000000,0.00038947400000000001
70.00000000000000000000,0.00009296270000000000
70.00000000000000000000,0.00010834100000000000
70.00000000000000000000,0.00049434900000000005
70.00000000000000000000,0.00094816200000000001
70.00000000000000000000,0.00119122999999999994
70.00000000000000000000,0.00115781999999999994
70.00000000000000000000,0.00094954100000000004
70.00000000000000000000,0.00070725599999999997
70.00000000000000000000,0.00047091400000000001
70.00000000000000000000,0.00019999300000000001
70.00000000000000000000,-0.00012535399999999999
70.00000000000000000000,-0.00040187099999999999
71.00000000000000000000,-0.00047437999999999999
71.00000000000000000000,-0.00033407499999999998
71.00000000000000000000,-0.00014090399999999999
71.00000000000000000000,-0.00001605670000000000
71.00000000000000000000,0.00001401160000000000
71.00000000000000000000,-0.00002469920000000000
71.00000000000000000000,-0.00009457340000000000
71.00000000000000000000,-0.00012061000000000000
71.00000000000000000000,-0.00005536480000000000
71.00000000000000000000,0.00005562570000000000
71.00000000000000000000,0.00014107000000000000
71.00000000000000000000,0.00021251899999999999
71.00000000000000000000,0.00024802100000000002
71.00000000000000000000,0.00006387080000000000
71.00000000000000000000,-0.00045862700000000003
71.00000000000000000000,-0.00099027800000000003
71.00000000000000000000,-0.00098924299999999989
71.00000000000000000000,-0.00034452600000000000
71.00000000000000000000,0.00044688699999999998
71.00000000000000000000,0.00083557700000000000
72.00000000000000000000,0.00072188899999999997
72.00000000000000000000,0.00038233400000000002
72.00000000000000000000,0.00017124200000000000
72.00000000000000000000,0.00015361199999999999
72.00000000000000000000,0.00016370400000000000
72.00000000000000000000,0.00007431560000000000
72.00000000000000000000,-0.00006422520000000000
72.00000000000000000000,-0.00015814400000000001
72.00000000000000000000,-0.00017981799999999999
72.00000000000000000000,-0.00017484500000000000
72.00000000000000000000,-0.00020614700000000000
72.00000000000000000000,-0.00028567600000000001
72.00000000000000000000,-0.00037335299999999999
72.00000000000000000000,-0.00043622900000000000
72.00000000000000000000,-0.00048486299999999998
72.00000000000000000000,-0.00052484999999999999
72.00000000000000000000,-0.00052883100000000001
72.00000000000000000000,-0.00046651300000000000
72.00000000000000000000,-0.00034128000000000001
72.00000000000000000000,-0.00018543699999999999
73.00000000000000000000,-0.00006083900000000000
73.00000000000000000000,-0.00000101707000000000
73.00000000000000000000,0.00000586128000000000
73.00000000000000000000,-0.00000135528000000000
73.00000000000000000000,-0.00000637673000000000
73.00000000000000000000,-0.00001186660000000000
73.00000000000000000000,-0.00003827870000000000
73.00000000000000000000,-0.00008938410000000000
73.00000000000000000000,-0.00012229900000000000
73.00000000000000000000,-0.00006997670000000000
73.00000000000000000000,0.00009802939999999999
73.00000000000000000000,0.00033778999999999998
73.00000000000000000000,0.00054560000000000003
73.00000000000000000000,0.00063731499999999995
73.00000000000000000000,0.00060814899999999999
73.00000000000000000000,0.00051002800000000004
73.00000000000000000000,0.00038419799999999998
73.00000000000000000000,0.00015890899999999999
73.00000000000000000000,-0.00022335100000000000
73.00000000000000000000,-0.00048561699999999998
74.00000000000000000000,-0.00040562200000000001
74.00000000000000000000,-0.00019589600000000001
74.00000000000000000000,0.00007274480000000000
74.00000000000000000000,0.00044597300000000001
74.00000000000000000000,0.00075756100000000002
74.00000000000000000000,0.00083602700000000004
74.00000000000000000000,0.00079909700000000002
74.00000000000000000000,0.00084594399999999995
74.00000000000000000000,0.00092690999999999997
74.00000000000000000000,0.00093563600000000000
74.00000000000000000000,0.00082734699999999998
74.00000000000000000000,0.00063433999999999995
74.00000000000000000000,0.00041728700000000002
74.00000000000000000000,0.00023732800000000000
74.00000000000000000000,0.00012517999999999999
74.00000000000000000000,0.00006474080000000000
74.00000000000000000000,-0.00000886941000000000
74.00000000000000000000,-0.00013483899999999999
74.00000000000000000000,-0.00026599099999999998
74.00000000000000000000,-0.00035060600000000000
75.00000000000000000000,-0.00039040800000000002
75.00000000000000000000,-0.00043829200000000001
75.00000000000000000000,-0.00052103000000000002
75.00000000000000000000,-0.00060816600000000005
75.00000000000000000000,-0.00075780100000000000
75.00000000000000000000,-0.00107842000000000007
75.00000000000000000000,-0.00129926999999999994
75.00000000000000000000,-0.00103191000000000003
75.00000000000000000000,-0.00040095600000000000
75.00000000000000000000,0.00017267199999999999
75.00000000000000000000,0.00045470900000000003
75.00000000000000000000,0.00051089899999999999
75.00000000000000000000,0.00042799400000000001
75.00000000000000000000,0.00023382800000000000
75.00000000000000000000,0.00001828370000000000
75.00000000000000000000,-0.00016643300000000001
75.00000000000000000000,-0.00027930099999999997
75.00000000000000000000,-0.00029850200000000002
75.00000000000000000000,-0.00022393599999999999
75.00000000000000000000,-0.00011959500000000000
76.00000000000000000000,-0.00003145750000000000
76.00000000000000000000,0.00005918120000000000
76.00000000000000000000,0.00017571399999999999
76.00000000000000000000,0.00020460199999999999
76.00000000000000000000,-0.00002313610000000000
76.00000000000000000000,-0.00039478799999999997
76.00000000000000000000,-0.00056856799999999998
76.00000000000000000000,-0.00032607099999999999
76.00000000000000000000,0.00025177799999999997
76.00000000000000000000,0.00082863000000000001
76.00000000000000000000,0.00110607999999999995
76.00000000000000000000,0.00109102000000000005
76.00000000000000000000,0.00087698799999999999
76.00000000000000000000,0.00055731400000000005
76.00000000000000000000,0.00021154700000000000
76.00000000000000000000,-0.00021605900000000000
76.00000000000000000000,-0.00080101900000000004
76.00000000000000000000,-0.00111626999999999994
76.00000000000000000000,-0.00070634199999999999
76.00000000000000000000,0.00004669000000000000
77.00000000000000000000,0.00049612400000000002
77.00000000000000000000,0.00051982600000000003
77.00000000000000000000,0.00033317100000000000
77.00000000000000000000,0.00011453300000000000
77.00000000000000000000,-0.00003717580000000000
77.00000000000000000000,-0.00010081800000000000
77.00000000000000000000,-0.00010329200000000000
77.00000000000000000000,-0.00009495660000000000
77.00000000000000000000,-0.00009074210000000000
77.00000000000000000000,-0.00009190520000000000
77.00000000000000000000,-0.00013425600000000000
77.00000000000000000000,-0.00027858599999999999
77.00000000000000000000,-0.00046834200000000001
77.00000000000000000000,-0.00043226000000000001
77.00000000000000000000,0.00002555140000000000
77.00000000000000000000,0.00067679399999999999
77.00000000000000000000,0.00111825000000000010
77.00000000000000000000,0.00120333000000000007
77.00000000000000000000,0.00103096999999999998
77.00000000000000000000,0.00074178000000000004
78.00000000000000000000,0.00040310699999999999
78.00000000000000000000,0.00004762860000000000
78.00000000000000000000,-0.00026536499999999999
78.00000000000000000000,-0.00046327100000000002
78.00000000000000000000,-0.00050700099999999998
78.00000000000000000000,-0.00043691200000000002
78.00000000000000000000,-0.00032988300000000000
78.00000000000000000000,-0.00023419200000000001
78.00000000000000000000,-0.00020498300000000000
78.00000000000000000000,-0.00024664600000000000
78.00000000000000000000,-0.00027723599999999999
78.00000000000000000000,-0.00023840499999999999
78.00000000000000000000,-0.00011174200000000000
78.00000000000000000000,0.00011448100000000000
78.00000000000000000000,0.00036049200000000002
78.00000000000000000000,0.00051551199999999998
78.00000000000000000000,0.00054217100000000004
78.00000000000000000000,0.00047320499999999998
78.00000000000000000000,0.00035588500000000001
78.00000000000000000000,0.00020773900000000000
79.00000000000000000000,0.00001950520000000000
79.00000000000000000000,-0.00019119600000000000
79.00000000000000000000,-0.00033014900000000001
79.00000000000000000000,-0.00033057900000000001
79.00000000000000000000,-0.00023296900000000000
79.00000000000000000000,-0.00009539460000000000
79.00000000000000000000,0.00008454220000000001
79.00000000000000000000,0.00027633699999999998
79.00000000000000000000,0.00037882800000000000
79.00000000000000000000,0.00032787199999999999
79.00000000000000000000,0.00018037600000000000
79.00000000000000000000,0.00000951405000000000
79.00000000000000000000,-0.00011741500000000000
79.00000000000000000000,-0.00011776800000000000
79.00000000000000000000,-0.00001802300000000000
79.00000000000000000000,0.00007966520000000000
79.00000000000000000000,0.00013010499999999999
79.00000000000000000000,0.00012106600000000000
79.00000000000000000000,0.00003531720000000000
79.00000000000000000000,-0.00010529600000000000
80.00000000000000000000,-0.00025075700000000000
80.00000000000000000000,-0.00043538799999999999
80.00000000000000000000,-0.00067728999999999999
80.00000000000000000000,-0.00077742800000000004
80.00000000000000000000,-0.00050859500000000003
80.00000000000000000000,0.00002373110000000000
80.00000000000000000000,0.00048690799999999998
80.00000000000000000000,0.00067545799999999998
80.00000000000000000000,0.00061575800000000000
80.00000000000000000000,0.00043812099999999997
80.00000000000000000000,0.00024107900000000000
80.00000000000000000000,0.00004463150000000000
80.00000000000000000000,-0.00015384200000000001
80.00000000000000000000,-0.00023437100000000001
80.00000000000000000000,-0.00008005019999999999
80.00000000000000000000,0.00014744199999999999
80.00000000000000000000,0.00018937199999999999
80.00000000000000000000,0.00006684770000000000
80.00000000000000000000,0.00010599300000000000
80.00000000000000000000,0.00042177099999999998
81.00000000000000000000,0.00080999800000000003
81.00000000000000000000,0.00105411000000000003
81.00000000000000000000,0.00103079999999999990
81.00000000000000000000,0.00081515199999999998
81.00000000000000000000,0.00042163100000000000
81.00000000000000000000,-0.00015529399999999999
81.00000000000000000000,-0.00065440300000000002
81.00000000000000000000,-0.00073497199999999997
81.00000000000000000000,-0.00046896900000000002
81.00000000000000000000,-0.00017072499999999999
81.00000000000000000000,-0.00003542330000000000
81.00000000000000000000,-0.00004965030000000000
81.00000000000000000000,-0.00011881900000000000
81.00000000000000000000,-0.00018629200000000001
81.00000000000000000000,-0.00022389900000000001
81.00000000000000000000,-0.00022990200000000001
81.00000000000000000000,-0.00020676399999999999
81.00000000000000000000,-0.00017607400000000000
81.00000000000000000000,-0.00012662000000000000
81.00000000000000000000,-0.00005394540000000000
82.00000000000000000000,0.00003103990000000000
82.00000000000000000000,0.00010131400000000000
82.00000000000000000000,0.00016185599999999999
82.00000000000000000000,0.00021117700000000000
82.00000000000000000000,0.00024949700000000000
82.00000000000000000000,0.00029474600000000003
82.00000000000000000000,0.00033918400000000002
82.00000000000000000000,0.00021405000000000000
82.00000000000000000000,-0.00009512149999999999
82.00000000000000000000,-0.00033081799999999998
82.00000000000000000000,-0.00040001000000000001
82.00000000000000000000,-0.00051421200000000000
82.00000000000000000000,-0.00069305699999999996
82.00000000000000000000,-0.00040028699999999998
82.00000000000000000000,0.00049064400000000004
82.00000000000000000000,0.00133226999999999998
82.00000000000000000000,0.00159453999999999998
82.00000000000000000000,0.00124149999999999998
82.00000000000000000000,0.00060837499999999997
82.00000000000000000000,0.00009096260000000000
83.00000000000000000000,-0.00012398100000000000
83.00000000000000000000,-0.00012873999999999999
83.00000000000000000000,-0.00008813680000000000
83.00000000000000000000,-0.00009043510000000000
83.00000000000000000000,-0.00017698900000000001
83.00000000000000000000,-0.00034060800000000000
83.00000000000000000000,-0.00050188000000000001
83.00000000000000000000,-0.00057203500000000003
83.00000000000000000000,-0.00053586900000000002
83.00000000000000000000,-0.00044766800000000002
83.00000000000000000000,-0.00037874700000000002
83.00000000000000000000,-0.00031702899999999998
83.00000000000000000000,-0.00024417500000000001
83.00000000000000000000,-0.00018545899999999999
83.00000000000000000000,-0.00017308199999999999
83.00000000000000000000,-0.00017079100000000000
83.00000000000000000000,-0.00010423499999999999
83.00000000000000000000,0.00001829660000000000
83.00000000000000000000,0.00005847910000000000
83.00000000000000000000,-0.00003439260000000000
84.00000000000000000000,-0.00015398600000000000
84.00000000000000000000,-0.00015342200000000001
84.00000000000000000000,0.00002547940000000000
84.00000000000000000000,0.00026372700000000000
84.00000000000000000000,0.00041218299999999999
84.00000000000000000000,0.00042252700000000002
84.00000000000000000000,0.00032354399999999999
84.00000000000000000000,0.00016939400000000001
84.00000000000000000000,0.00004028420000000000
84.00000000000000000000,-0.00001345390000000000
84.00000000000000000000,-0.00000821332000000000
84.00000000000000000000,-0.00000129601000000000
84.00000000000000000000,-0.00002264940000000000
84.00000000000000000000,-0.00001863930000000000
84.00000000000000000000,0.00005746020000000000
84.00000000000000000000,0.00016033000000000000
84.00000000000000000000,0.00022531600000000001
84.00000000000000000000,0.00022812099999999999
84.00000000000000000000,0.00019146699999999999
84.00000000000000000000,0.00016975800000000000
85.00000000000000000000,0.00019796599999999999
85.00000000000000000000,0.00026562800000000001
85.00000000000000000000,0.00037064200000000002
85.00000000000000000000,0.00052571499999999995
85.00000000000000000000,0.00059785399999999999
85.00000000000000000000,0.00039550600000000000
85.00000000000000000000,0.00013230600000000000
85.00000000000000000000,0.00013865200000000001
85.00000000000000000000,0.00030514499999999999
85.00000000000000000000,0.00032537700000000001
85.00000000000000000000,0.00013544600000000000
85.00000000000000000000,-0.00001217700000000000
85.00000000000000000000,0.00006498590000000000
85.00000000000000000000,0.00027884999999999997
85.00000000000000000000,0.00044298299999999998
85.00000000000000000000,0.00047434600000000000
85.00000000000000000000,0.00040968500000000002
85.00000000000000000000,0.00028845999999999999
85.00000000000000000000,0.00014250999999999999
85.00000000000000000000,0.00006015980000000000
86.00000000000000000000,0.00005989350000000000
86.00000000000000000000,0.00002510460000000000
86.00000000000000000000,-0.00012966200000000001
86.00000000000000000000,-0.00037253500000000001
86.00000000000000000000,-0.00059487199999999998
86.00000000000000000000,-0.00073258799999999995
86.00000000000000000000,-0.00076402100000000004
86.00000000000000000000,-0.00072739199999999999
86.00000000000000000000,-0.00067469800000000005
86.00000000000000000000,-0.00061570699999999995
86.00000000000000000000,-0.00055087199999999999
86.00000000000000000000,-0.00048852900000000002
86.00000000000000000000,-0.00046663199999999997
86.00000000000000000000,-0.00049767799999999999
86.00000000000000000000,-0.00047626599999999998
86.00000000000000000000,-0.00028410399999999998
86.00000000000000000000,0.00000470622000000000
86.00000000000000000000,0.00015829000000000000
86.00000000000000000000,0.00002210440000000000
86.00000000000000000000,-0.00020826699999999999
87.00000000000000000000,-0.00020424500000000001
87.00000000000000000000,0.00003051210000000000
87.00000000000000000000,0.00031939600000000000
87.00000000000000000000,0.00061687500000000002
87.00000000000000000000,0.00076321400000000001
87.00000000000000000000,0.00061649800000000005
87.00000000000000000000,0.00046688500000000000
87.00000000000000000000,0.00054359600000000003
87.00000000000000000000,0.00064893000000000004
87.00000000000000000000,0.00064370900000000001
87.00000000000000000000,0.00054772899999999995
87.00000000000000000000,0.00034702000000000002
87.00000000000000000000,0.00017357800000000000
87.00000000000000000000,0.00019744000000000001
87.00000000000000000000,0.00029459600000000000
87.00000000000000000000,0.00027184600000000001
87.00000000000000000000,0.00011362700000000000
87.00000000000000000000,-0.00003418140000000000
87.00000000000000000000,-0.00001292480000000000
87.00000000000000000000,0.00013317799999999999
88.00000000000000000000,0.00028825999999999998
88.00000000000000000000,0.00036942600000000001
88.00000000000000000000,0.00034686599999999998
88.00000000000000000000,0.00022256500000000001
88.00000000000000000000,0.00003534750000000000
88.00000000000000000000,-0.00016613100000000000
88.00000000000000000000,-0.00035231400000000000
88.00000000000000000000,-0.00050166000000000002
88.00000000000000000000,-0.00059468699999999999
88.00000000000000000000,-0.00061548699999999996
88.00000000000000000000,-0.00056950600000000001
88.00000000000000000000,-0.00046989699999999999
88.00000000000000000000,-0.00036053799999999998
88.00000000000000000000,-0.00029628899999999998
88.00000000000000000000,-0.00027744199999999998
88.00000000000000000000,-0.00018276600000000000
88.00000000000000000000,0.00006950420000000000
88.00000000000000000000,0.00030836999999999998
88.00000000000000000000,0.00028741500000000001
88.00000000000000000000,0.00002897940000000000
89.00000000000000000000,-0.00020770399999999999
89.00000000000000000000,-0.00026525399999999998
89.00000000000000000000,-0.00017656599999999999
89.00000000000000000000,-0.00002573750000000000
89.00000000000000000000,0.00013624700000000001
89.00000000000000000000,0.00035415300000000001
89.00000000000000000000,0.00063532100000000000
89.00000000000000000000,0.00092646700000000005
89.00000000000000000000,0.00112634999999999992
89.00000000000000000000,0.00106324999999999996
89.00000000000000000000,0.00062394000000000002
89.00000000000000000000,0.00011833200000000000
89.00000000000000000000,-0.00000265688000000000
89.00000000000000000000,0.00019384200000000001
89.00000000000000000000,0.00030170099999999998
89.00000000000000000000,0.00014381299999999999
89.00000000000000000000,-0.00011898300000000000
89.00000000000000000000,-0.00027762700000000002
89.00000000000000000000,-0.00026414199999999998
89.00000000000000000000,-0.00020258799999999999
90.00000000000000000000,-0.00022020899999999999
90.00000000000000000000,-0.00032437200000000002
90.00000000000000000000,-0.00045200500000000001
90.00000000000000000000,-0.00053875899999999998
90.00000000000000000000,-0.00052972499999999999
90.00000000000000000000,-0.00043010400000000000
90.00000000000000000000,-0.00031119900000000001
90.00000000000000000000,-0.00025274100000000001
90.00000000000000000000,-0.00025407199999999999
90.00000000000000000000,-0.00026227999999999999
90.00000000000000000000,-0.00023203699999999999
90.00000000000000000000,-0.00015182300000000001
90.00000000000000000000,-0.00008794200000000001
90.00000000000000000000,-0.00023343400000000000
90.00000000000000000000,-0.00057150300000000001
90.00000000000000000000,-0.00059923400000000003
90.00000000000000000000,-0.00007433500000000000
90.00000000000000000000,0.00060136700000000000
90.00000000000000000000,0.00098425700000000010
90.00000000000000000000,0.00110432999999999994
91.00000000000000000000,0.00118724999999999994
91.00000000000000000000,0.00119792000000000010
91.00000000000000000000,0.00099910100000000007
91.00000000000000000000,0.00057166900000000002
91.00000000000000000000,0.00000562660000000000
91.00000000000000000000,-0.00060906500000000000
91.00000000000000000000,-0.00111157000000000009
91.00000000000000000000,-0.00121132000000000010
91.00000000000000000000,-0.00081065599999999999
91.00000000000000000000,-0.00018052800000000000
91.00000000000000000000,0.00031726399999999999
91.00000000000000000000,0.00051448399999999995
91.00000000000000000000,0.00045690500000000002
91.00000000000000000000,0.00027943299999999999
91.00000000000000000000,0.00012983600000000001
91.00000000000000000000,0.00004077900000000000
91.00000000000000000000,-0.00000658915000000000
91.00000000000000000000,0.00003947910000000000
91.00000000000000000000,0.00019746299999999999
91.00000000000000000000,0.00040774600000000001
92.00000000000000000000,0.00056520900000000000
92.00000000000000000000,0.00063153899999999997
92.00000000000000000000,0.00064778299999999997
92.00000000000000000000,0.00061744899999999995
92.00000000000000000000,0.00045729499999999998
92.00000000000000000000,0.00019288100000000000
92.00000000000000000000,-0.00001120590000000000
92.00000000000000000000,-0.00006352720000000000
92.00000000000000000000,-0.00004369650000000000
92.00000000000000000000,-0.00004993920000000000
92.00000000000000000000,-0.00005235800000000000
92.00000000000000000000,0.00002143620000000000
92.00000000000000000000,0.00014006600000000000
92.00000000000000000000,0.00015592600000000000
92.00000000000000000000,-0.00006975200000000001
92.00000000000000000000,-0.00046547000000000000
92.00000000000000000000,-0.00067278300000000004
92.00000000000000000000,-0.00045720700000000000
92.00000000000000000000,-0.00004201180000000000
92.00000000000000000000,0.00021268000000000000
93.00000000000000000000,0.00021478200000000000
93.00000000000000000000,0.00011829700000000000
93.00000000000000000000,0.00005835400000000000
93.00000000000000000000,0.00005644610000000000
93.00000000000000000000,0.00008960760000000000
93.00000000000000000000,0.00013973300000000001
93.00000000000000000000,0.00019943700000000001
93.00000000000000000000,0.00023322100000000001
93.00000000000000000000,0.00022266199999999999
93.00000000000000000000,0.00018383800000000000
93.00000000000000000000,0.00011667099999999999
93.00000000000000000000,0.00000283204000000000
93.00000000000000000000,-0.00013406900000000001
93.00000000000000000000,-0.00023706800000000000
93.00000000000000000000,-0.00025895600000000002
93.00000000000000000000,-0.00017855400000000001
93.00000000000000000000,-0.00002112350000000000
93.00000000000000000000,0.00012995100000000000
93.00000000000000000000,0.00017344900000000000
93.00000000000000000000,0.00007350320000000000
94.00000000000000000000,-0.00010967000000000000
94.00000000000000000000,-0.00030613299999999999
94.00000000000000000000,-0.00045713999999999998
94.00000000000000000000,-0.00047328900000000000
94.00000000000000000000,-0.00034830499999999998
94.00000000000000000000,-0.00018151300000000001
94.00000000000000000000,-0.00004606670000000000
94.00000000000000000000,0.00005472910000000000
94.00000000000000000000,0.00010069400000000000
94.00000000000000000000,0.00004245790000000000
94.00000000000000000000,-0.00009072250000000000
94.00000000000000000000,-0.00017998499999999999
94.00000000000000000000,-0.00012095700000000000
94.00000000000000000000,0.00005830320000000000
94.00000000000000000000,0.00022979700000000001
94.00000000000000000000,0.00027797500000000002
94.00000000000000000000,0.00018549899999999999
94.00000000000000000000,0.00003919290000000000
94.00000000000000000000,-0.00006700990000000000
94.00000000000000000000,-0.00010136000000000001
95.00000000000000000000,-0.00009566549999999999
95.00000000000000000000,-0.00010100500000000000
95.00000000000000000000,-0.00016991700000000001
95.00000000000000000000,-0.00029114700000000001
95.00000000000000000000,-0.00033251899999999998
95.00000000000000000000,-0.00018557200000000000
95.00000000000000000000,0.00006980110000000000
95.00000000000000000000,0.00027723899999999998
95.00000000000000000000,0.00036297100000000002
95.00000000000000000000,0.00035542300000000000
95.00000000000000000000,0.00037177000000000000
95.00000000000000000000,0.00050697800000000005
95.00000000000000000000,0.00065117199999999999
95.00000000000000000000,0.00047323100000000001
95.00000000000000000000,-0.00017445100000000000
95.00000000000000000000,-0.00061094999999999997
95.00000000000000000000,-0.00029020700000000001
95.00000000000000000000,0.00024532100000000000
95.00000000000000000000,0.00047306200000000001
95.00000000000000000000,0.00050152200000000001
96.00000000000000000000,0.00066287799999999999
96.00000000000000000000,0.00102263000000000007
96.00000000000000000000,0.00137776999999999995
96.00000000000000000000,0.00146812000000000006
96.00000000000000000000,0.00119848999999999997
96.00000000000000000000,0.00068672000000000004
96.00000000000000000000,0.00010753000000000000
96.00000000000000000000,-0.00038119800000000002
96.00000000000000000000,-0.00070556600000000003
96.00000000000000000000,-0.00086426099999999996
96.00000000000000000000,-0.00091804099999999997
96.00000000000000000000,-0.00092177899999999996
96.00000000000000000000,-0.00089082600000000005
96.00000000000000000000,-0.00079863400000000000
96.00000000000000000000,-0.00065002699999999996
96.00000000000000000000,-0.00048918599999999996
96.00000000000000000000,-0.00037305999999999998
96.00000000000000000000,-0.00033664300000000002
96.00000000000000000000,-0.00037136100000000001
96.00000000000000000000,-0.00037347299999999998
97.00000000000000000000,-0.00026720800000000001
97.00000000000000000000,-0.00010485400000000000
97.00000000000000000000,0.00002749790000000000
97.00000000000000000000,0.00013664499999999999
97.00000000000000000000,0.00030990800000000002
97.00000000000000000000,0.00057476399999999996
97.00000000000000000000,0.00078549299999999996
97.00000000000000000000,0.00078199599999999997
97.00000000000000000000,0.00062142299999999996
97.00000000000000000000,0.00038864500000000002
97.00000000000000000000,0.00013699200000000001
97.00000000000000000000,-0.00004242750000000000
97.00000000000000000000,-0.00008124879999999999
97.00000000000000000000,-0.00000339571000000000
97.00000000000000000000,0.00010034099999999999
97.00000000000000000000,0.00014784600000000001
97.00000000000000000000,0.00009336060000000000
97.00000000000000000000,-0.00005866910000000000
97.00000000000000000000,-0.00023804400000000000
97.00000000000000000000,-0.00034886100000000001
98.00000000000000000000,-0.00036036299999999999
98.00000000000000000000,-0.00032299800000000001
98.00000000000000000000,-0.00028543900000000002
98.00000000000000000000,-0.00025521400000000003
98.00000000000000000000,-0.00025086900000000003
98.00000000000000000000,-0.00033134100000000002
98.00000000000000000000,-0.00050398399999999996
98.00000000000000000000,-0.00054846699999999996
98.00000000000000000000,-0.00029943299999999999
98.00000000000000000000,0.00000999467000000000
98.00000000000000000000,0.00014649199999999999
98.00000000000000000000,0.00015276999999999999
98.00000000000000000000,0.00017540800000000000
98.00000000000000000000,0.00028619799999999999
98.00000000000000000000,0.00038271600000000001
98.00000000000000000000,0.00027340099999999999
98.00000000000000000000,-0.00004046570000000000
98.00000000000000000000,-0.00025335000000000001
98.00000000000000000000,-0.00004903760000000000
98.00000000000000000000,0.00052033400000000001
99.00000000000000000000,0.00106960999999999992
99.00000000000000000000,0.00128527000000000003
99.00000000000000000000,0.00115082000000000010
99.00000000000000000000,0.00090788800000000003
99.00000000000000000000,0.00075533100000000004
99.00000000000000000000,0.00068088399999999998
99.00000000000000000000,0.00059040999999999998
99.00000000000000000000,0.00039565800000000001
99.00000000000000000000,0.00000684895000000000
99.00000000000000000000,-0.00041362700000000002
99.00000000000000000000,-0.00044693199999999998
99.00000000000000000000,-0.00010177800000000000
99.00000000000000000000,0.00016928500000000000
99.00000000000000000000,0.00011871400000000000
99.00000000000000000000,-0.00015226500000000001
99.00000000000000000000,-0.00043244300000000002
99.00000000000000000000,-0.00058614900000000000
99.00000000000000000000,-0.00060663299999999998
99.00000000000000000000,-0.00055768799999999998
99.00000000000000000000,-0.00048448399999999998
100.00000000000000000000,-0.00039842700000000003
100.00000000000000000000,-0.00030606900000000001
100.00000000000000000000,-0.00023906300000000000
100.00000000000000000000,-0.00020641999999999999
100.00000000000000000000,-0.00018586500000000001
100.00000000000000000000,-0.00015634399999999999
100.00000000000000000000,-0.00011724800000000000
100.00000000000000000000,-0.00007848929999999999
100.00000000000000000000,-0.00003994270000000000
100.00000000000000000000,0.00000004714090000000
100.00000000000000000000,0.00005905290000000000
100.00000000000000000000,0.00017432299999999999
100.00000000000000000000,0.00037540799999999998
100.00000000000000000000,0.00060779100000000000
100.00000000000000000000,0.00074315099999999995
100.00000000000000000000,0.00069592999999999999
100.00000000000000000000,0.00053963199999999996
100.00000000000000000000,0.00038699200000000001
100.00000000000000000000,0.00016244299999999999
100.00000000000000000000,-0.00030335600000000001
101.00000000000000000000,-0.00078940900000000003
101.00000000000000000000,-0.00079729800000000000
101.00000000000000000000,-0.00030347300000000001
101.00000000000000000000,0.00019515600000000001
101.00000000000000000000,0.00040357300000000001
101.00000000000000000000,0.00038828099999999998
101.00000000000000000000,0.00026520999999999999
101.00000000000000000000,0.00012120900000000000
101.00000000000000000000,-0.00000101366000000000
101.00000000000000000000,-0.00005132620000000000
101.00000000000000000000,-0.00003371330000000000
101.00000000000000000000,-0.00004480630000000000
101.00000000000000000000,-0.00023133800000000001
101.00000000000000000000,-0.00052450700000000001
101.00000000000000000000,-0.00063987799999999997
101.00000000000000000000,-0.00043566500000000001
101.00000000000000000000,-0.00002390470000000000
101.00000000000000000000,0.00038852500000000002
101.00000000000000000000,0.00069950500000000001
101.00000000000000000000,0.00087995300000000005
102.00000000000000000000,0.00088374099999999995
102.00000000000000000000,0.00073347199999999999
102.00000000000000000000,0.00061927200000000003
102.00000000000000000000,0.00069737900000000003
102.00000000000000000000,0.00088210199999999995
102.00000000000000000000,0.00095268900000000005
102.00000000000000000000,0.00077308800000000001
102.00000000000000000000,0.00042410899999999999
102.00000000000000000000,0.00012834200000000001
102.00000000000000000000,-0.00003223200000000000
102.00000000000000000000,-0.00012022000000000000
102.00000000000000000000,-0.00023538699999999999
102.00000000000000000000,-0.00041771100000000003
102.00000000000000000000,-0.00061379100000000003
102.00000000000000000000,-0.00076830900000000001
102.00000000000000000000,-0.00085014100000000000
102.00000000000000000000,-0.00089787299999999999
102.00000000000000000000,-0.00093743400000000001
102.00000000000000000000,-0.00089223500000000001
102.00000000000000000000,-0.00070407499999999997
103.00000000000000000000,-0.00046720799999999999
103.00000000000000000000,-0.00028648800000000000
103.00000000000000000000,-0.00017754700000000001
103.00000000000000000000,-0.00010926599999999999
103.00000000000000000000,-0.00007261310000000000
103.00000000000000000000,-0.00006276230000000000
103.00000000000000000000,-0.00005993820000000000
103.00000000000000000000,-0.00004896310000000000
103.00000000000000000000,-0.00002975240000000000
103.00000000000000000000,-0.00000240701000000000
103.00000000000000000000,0.00004276110000000000
103.00000000000000000000,0.00009596000000000000
103.00000000000000000000,0.00013589299999999999
103.00000000000000000000,0.00014941800000000001
103.00000000000000000000,0.00014354299999999999
103.00000000000000000000,0.00012610300000000000
103.00000000000000000000,0.00011225400000000000
103.00000000000000000000,0.00012292999999999999
103.00000000000000000000,0.00015483599999999999
103.00000000000000000000,0.00017674699999999999
104.00000000000000000000,0.00017315200000000001
104.00000000000000000000,0.00014336800000000000
104.00000000000000000000,0.00008767930000000001
104.00000000000000000000,0.00003416400000000000
104.00000000000000000000,0.00007021490000000000
104.00000000000000000000,0.00021167300000000000
104.00000000000000000000,0.00032830400000000002
104.00000000000000000000,0.00031253699999999999
104.00000000000000000000,0.00022951699999999999
104.00000000000000000000,0.00016356300000000001
104.00000000000000000000,0.00020633600000000000
104.00000000000000000000,0.00050450199999999999
104.00000000000000000000,0.00100238999999999992
104.00000000000000000000,0.00138713000000000009
104.00000000000000000000,0.00138944000000000003
104.00000000000000000000,0.00107442999999999992
104.00000000000000000000,0.00071287800000000001
104.00000000000000000000,0.00046865900000000001
104.00000000000000000000,0.00031725800000000000
104.00000000000000000000,0.00017743400000000000
105.00000000000000000000,0.00002637060000000000
105.00000000000000000000,-0.00009427880000000000
105.00000000000000000000,-0.00014498399999999999
105.00000000000000000000,-0.00012561000000000001
105.00000000000000000000,-0.00010262000000000000
105.00000000000000000000,-0.00012282400000000000
105.00000000000000000000,-0.00017871099999999999
105.00000000000000000000,-0.00025667399999999998
105.00000000000000000000,-0.00032379899999999999
105.00000000000000000000,-0.00034675999999999999
105.00000000000000000000,-0.00032028500000000001
105.00000000000000000000,-0.00027037099999999999
105.00000000000000000000,-0.00023177899999999999
105.00000000000000000000,-0.00023553800000000001
105.00000000000000000000,-0.00027508099999999999
105.00000000000000000000,-0.00029264100000000001
105.00000000000000000000,-0.00023022400000000001
105.00000000000000000000,-0.00012525899999999999
105.00000000000000000000,-0.00007910749999999999
105.00000000000000000000,-0.00014254000000000000
106.00000000000000000000,-0.00027185499999999999
106.00000000000000000000,-0.00041585700000000000
106.00000000000000000000,-0.00064490800000000003
106.00000000000000000000,-0.00105864000000000002
106.00000000000000000000,-0.00146768000000000007
106.00000000000000000000,-0.00148643999999999990
106.00000000000000000000,-0.00108541999999999992
106.00000000000000000000,-0.00076554499999999996
106.00000000000000000000,-0.00094877799999999995
106.00000000000000000000,-0.00106339999999999994
106.00000000000000000000,-0.00023073300000000000
106.00000000000000000000,0.00108284000000000006
106.00000000000000000000,0.00183891000000000002
106.00000000000000000000,0.00177170999999999991
106.00000000000000000000,0.00121261000000000003
106.00000000000000000000,0.00056704200000000002
106.00000000000000000000,0.00004008900000000000
106.00000000000000000000,-0.00022203300000000001
106.00000000000000000000,-0.00017290599999999999
106.00000000000000000000,0.00009572560000000000
107.00000000000000000000,0.00035207000000000001
107.00000000000000000000,0.00042101600000000002
107.00000000000000000000,0.00030896500000000002
107.00000000000000000000,0.00014124499999999999
107.00000000000000000000,0.00003096330000000000
107.00000000000000000000,0.00000516070000000000
107.00000000000000000000,0.00003500450000000000
107.00000000000000000000,0.00007395360000000000
107.00000000000000000000,0.00010747500000000000
107.00000000000000000000,0.00013030800000000001
107.00000000000000000000,0.00014533900000000000
107.00000000000000000000,0.00014889699999999999
107.00000000000000000000,0.00014653100000000001
107.00000000000000000000,0.00010949700000000000
107.00000000000000000000,0.00000150699000000000
107.00000000000000000000,-0.00013040900000000000
107.00000000000000000000,-0.00015305500000000000
107.00000000000000000000,-0.00004290760000000000
107.00000000000000000000,0.00010708100000000000
107.00000000000000000000,0.00021606600000000000
108.00000000000000000000,0.00026735300000000001
108.00000000000000000000,0.00028273500000000000
108.00000000000000000000,0.00029222100000000001
108.00000000000000000000,0.00031543800000000002
108.00000000000000000000,0.00036821999999999999
108.00000000000000000000,0.00045455499999999999
108.00000000000000000000,0.00056399399999999995
108.00000000000000000000,0.00067336399999999997
108.00000000000000000000,0.00074719900000000004
108.00000000000000000000,0.00076933399999999999
108.00000000000000000000,0.00076125900000000002
108.00000000000000000000,0.00070834600000000000
108.00000000000000000000,0.00054256699999999998
108.00000000000000000000,0.00027689700000000002
108.00000000000000000000,0.00002397920000000000
108.00000000000000000000,-0.00014038100000000000
108.00000000000000000000,-0.00025282899999999999
108.00000000000000000000,-0.00036806900000000000
108.00000000000000000000,-0.00050595000000000002
108.00000000000000000000,-0.00063538199999999998
109.00000000000000000000,-0.00060802399999999998
109.00000000000000000000,-0.00024520400000000001
109.00000000000000000000,0.00030492799999999999
109.00000000000000000000,0.00060971400000000002
109.00000000000000000000,0.00048886800000000005
109.00000000000000000000,0.00014327300000000000
109.00000000000000000000,-0.00019321400000000001
109.00000000000000000000,-0.00044049600000000002
109.00000000000000000000,-0.00059748799999999997
109.00000000000000000000,-0.00063964100000000004
109.00000000000000000000,-0.00056634199999999995
109.00000000000000000000,-0.00046142800000000000
109.00000000000000000000,-0.00042242899999999999
109.00000000000000000000,-0.00041039599999999999
109.00000000000000000000,-0.00032116600000000001
109.00000000000000000000,-0.00016038599999999999
109.00000000000000000000,-0.00004114370000000000
109.00000000000000000000,0.00000426442000000000
109.00000000000000000000,0.00005388870000000000
109.00000000000000000000,0.00011368200000000000
110.00000000000000000000,0.00007201740000000000
110.00000000000000000000,-0.00015142500000000001
110.00000000000000000000,-0.00044983799999999998
110.00000000000000000000,-0.00059426100000000001
110.00000000000000000000,-0.00045163899999999999
110.00000000000000000000,-0.00014121700000000001
110.00000000000000000000,0.00009424640000000001
110.00000000000000000000,-0.00000933086000000000
110.00000000000000000000,-0.00042771399999999999
110.00000000000000000000,-0.00051445699999999996
110.00000000000000000000,0.00011696000000000001
110.00000000000000000000,0.00094722999999999997
110.00000000000000000000,0.00125920000000000003
110.00000000000000000000,0.00100610000000000001
110.00000000000000000000,0.00057564699999999999
110.00000000000000000000,0.00020118299999999999
110.00000000000000000000,-0.00001652270000000000
110.00000000000000000000,-0.00011877300000000000
110.00000000000000000000,-0.00017399599999999999
110.00000000000000000000,-0.00036440200000000000
111.00000000000000000000,-0.00069070700000000004
111.00000000000000000000,-0.00081146300000000001
111.00000000000000000000,-0.00049783399999999995
111.00000000000000000000,0.00005137890000000000
111.00000000000000000000,0.00048009900000000000
111.00000000000000000000,0.00060766200000000002
111.00000000000000000000,0.00052326900000000003
111.00000000000000000000,0.00044309100000000000
111.00000000000000000000,0.00045368999999999997
111.00000000000000000000,0.00049504099999999999
111.00000000000000000000,0.00047870999999999998
111.00000000000000000000,0.00043762100000000002
111.00000000000000000000,0.00044261200000000000
111.00000000000000000000,0.00044970999999999998
111.00000000000000000000,0.00028058700000000000
111.00000000000000000000,-0.00000425108000000000
111.00000000000000000000,-0.00011658900000000000
111.00000000000000000000,-0.00011607300000000000
111.00000000000000000000,-0.00037319900000000000
111.00000000000000000000,-0.00051137600000000002
112.00000000000000000000,0.00011454200000000000
112.00000000000000000000,0.00109668999999999999
112.00000000000000000000,0.00160241000000000008
112.00000000000000000000,0.00143155999999999991
112.00000000000000000000,0.00094220299999999996
112.00000000000000000000,0.00049227199999999998
112.00000000000000000000,0.00016457300000000000
112.00000000000000000000,-0.00009185280000000000
112.00000000000000000000,-0.00028211399999999998
112.00000000000000000000,-0.00041902800000000000
112.00000000000000000000,-0.00051588600000000001
112.00000000000000000000,-0.00053359600000000001
112.00000000000000000000,-0.00047742100000000001
112.00000000000000000000,-0.00041592199999999999
112.00000000000000000000,-0.00041237400000000002
112.00000000000000000000,-0.00047088499999999999
112.00000000000000000000,-0.00053742700000000004
112.00000000000000000000,-0.00054685300000000003
112.00000000000000000000,-0.00045377999999999998
112.00000000000000000000,-0.00026599600000000001
113.00000000000000000000,-0.00006614609999999999
113.00000000000000000000,0.00005959140000000000
113.00000000000000000000,0.00011777000000000001
113.00000000000000000000,0.00017681100000000000
113.00000000000000000000,0.00032028400000000000
113.00000000000000000000,0.00045967399999999998
113.00000000000000000000,0.00023629700000000000
113.00000000000000000000,-0.00037000999999999999
113.00000000000000000000,-0.00081051300000000001
113.00000000000000000000,-0.00061410900000000005
113.00000000000000000000,0.00006436990000000000
113.00000000000000000000,0.00063025099999999997
113.00000000000000000000,0.00074500800000000002
113.00000000000000000000,0.00047713999999999998
113.00000000000000000000,0.00012703399999999999
113.00000000000000000000,-0.00016660100000000000
113.00000000000000000000,-0.00041917099999999998
113.00000000000000000000,-0.00055856799999999996
113.00000000000000000000,-0.00048578100000000002
113.00000000000000000000,-0.00027272599999999999
114.00000000000000000000,-0.00010827900000000000
114.00000000000000000000,-0.00008400410000000000
114.00000000000000000000,-0.00015667099999999999
114.00000000000000000000,-0.00022865400000000001
114.00000000000000000000,-0.00026055900000000000
114.00000000000000000000,-0.00026056099999999997
114.00000000000000000000,-0.00025143000000000002
114.00000000000000000000,-0.00022376199999999999
114.00000000000000000000,-0.00016690300000000001
114.00000000000000000000,-0.00006283830000000000
114.00000000000000000000,0.00008324750000000001
114.00000000000000000000,0.00022983899999999999
114.00000000000000000000,0.00029341799999999999
114.00000000000000000000,0.00025031800000000002
114.00000000000000000000,0.00016226899999999999
114.00000000000000000000,0.00010856900000000000
114.00000000000000000000,0.00013443700000000000
114.00000000000000000000,0.00024099300000000000
114.00000000000000000000,0.00038287400000000001
114.00000000000000000000,0.00052813600000000001
115.00000000000000000000,0.00065996900000000005
115.00000000000000000000,0.00075370000000000005
115.00000000000000000000,0.00077015799999999995
115.00000000000000000000,0.00062945299999999998
115.00000000000000000000,0.00025558299999999998
115.00000000000000000000,-0.00026536799999999998
115.00000000000000000000,-0.00059184299999999999
115.00000000000000000000,-0.00047273900000000002
115.00000000000000000000,-0.00008084180000000000
115.00000000000000000000,0.00023015000000000001
115.00000000000000000000,0.00031047799999999999
115.00000000000000000000,0.00022629300000000000
115.00000000000000000000,0.00009854190000000000
115.00000000000000000000,-0.00000598818000000000
115.00000000000000000000,-0.00011874000000000000
115.00000000000000000000,-0.00018671500000000000
115.00000000000000000000,-0.00001238410000000000
115.00000000000000000000,0.00033140099999999999
115.00000000000000000000,0.00061151399999999996
115.00000000000000000000,0.00071185499999999995
116.00000000000000000000,0.00060789800000000005
116.00000000000000000000,0.00039118300000000003
116.00000000000000000000,0.00016178699999999999
116.00000000000000000000,-0.00002045760000000000
116.00000000000000000000,-0.00016373000000000001
116.00000000000000000000,-0.00030135800000000000
116.00000000000000000000,-0.00042118899999999998
116.00000000000000000000,-0.00049046300000000001
116.00000000000000000000,-0.00059668099999999995
116.00000000000000000000,-0.00086424500000000003
116.00000000000000000000,-0.00104016999999999998
116.00000000000000000000,-0.00073494700000000001
116.00000000000000000000,-0.00006628980000000000
116.00000000000000000000,0.00050672900000000003
116.00000000000000000000,0.00080085099999999999
116.00000000000000000000,0.00092559700000000001
116.00000000000000000000,0.00087739999999999997
116.00000000000000000000,0.00055828799999999999
116.00000000000000000000,0.00019464999999999999
116.00000000000000000000,0.00019627400000000000
117.00000000000000000000,0.00046870199999999999
117.00000000000000000000,0.00054484399999999995
117.00000000000000000000,0.00028193199999999998
117.00000000000000000000,-0.00007236880000000000
117.00000000000000000000,-0.00021195299999999999
117.00000000000000000000,-0.00012985699999999999
117.00000000000000000000,-0.00004235270000000000
117.00000000000000000000,-0.00007784610000000001
117.00000000000000000000,-0.00012941600000000001
117.00000000000000000000,-0.00006082980000000000
117.00000000000000000000,-0.00000548472000000000
117.00000000000000000000,-0.00013043000000000001
117.00000000000000000000,-0.00038179400000000002
117.00000000000000000000,-0.00059860000000000002
117.00000000000000000000,-0.00069059899999999997
117.00000000000000000000,-0.00063285200000000005
117.00000000000000000000,-0.00048180700000000000
117.00000000000000000000,-0.00032656999999999999
117.00000000000000000000,-0.00022771400000000001
117.00000000000000000000,-0.00019303199999999999
118.00000000000000000000,-0.00019306200000000000
118.00000000000000000000,-0.00022267599999999999
118.00000000000000000000,-0.00029116199999999997
118.00000000000000000000,-0.00029476099999999999
118.00000000000000000000,-0.00007036940000000000
118.00000000000000000000,0.00031703200000000002
118.00000000000000000000,0.00060791399999999998
118.00000000000000000000,0.00067765399999999997
118.00000000000000000000,0.00064452900000000002
118.00000000000000000000,0.00061198399999999999
118.00000000000000000000,0.00055904700000000002
118.00000000000000000000,0.00047056799999999998
118.00000000000000000000,0.00038872000000000001
118.00000000000000000000,0.00032831400000000001
118.00000000000000000000,0.00027768900000000002
118.00000000000000000000,0.00026053099999999999
118.00000000000000000000,0.00026993100000000000
118.00000000000000000000,0.00024356399999999999
118.00000000000000000000,0.00015302000000000000
118.00000000000000000000,0.00003296910000000000
119.00000000000000000000,-0.00007913710000000001
119.00000000000000000000,-0.00018506700000000000
119.00000000000000000000,-0.00030821400000000001
119.00000000000000000000,-0.00045290700000000001
119.00000000000000000000,-0.00052976399999999995
119.00000000000000000000,-0.00042543799999999999
119.00000000000000000000,-0.00017033599999999999
119.00000000000000000000,0.00010323900000000001
119.00000000000000000000,0.00030159000000000002
119.00000000000000000000,0.00041025700000000003
119.00000000000000000000,0.00043838500000000001
119.00000000000000000000,0.00037523000000000000
119.00000000000000000000,0.00024817200000000001
119.00000000000000000000,0.00017868499999999999
119.00000000000000000000,0.00025455299999999997
119.00000000000000000000,0.00038505700000000001
119.00000000000000000000,0.00036839499999999999
119.00000000000000000000,0.00017184000000000001
119.00000000000000000000,-0.00001895940000000000
119.00000000000000000000,-0.00009257950000000000
120.00000000000000000000,-0.00009373250000000000
120.00000000000000000000,-0.00020934799999999999
120.00000000000000000000,-0.00074277200000000005
120.00000000000000000000,-0.00152502999999999992
120.00000000000000000000,-0.00156325999999999991
120.00000000000000000000,-0.00039936399999999998
120.00000000000000000000,0.00113469999999999999
120.00000000000000000000,0.00203981999999999991
120.00000000000000000000,0.00203291000000000019
120.00000000000000000000,0.00145053999999999995
120.00000000000000000000,0.00070822400000000003
120.00000000000000000000,0.00007714310000000000
120.00000000000000000000,-0.00035971899999999999
120.00000000000000000000,-0.00062223499999999995
120.00000000000000000000,-0.00075218599999999996
120.00000000000000000000,-0.00076851299999999997
120.00000000000000000000,-0.00069501000000000003
120.00000000000000000000,-0.00060336299999999999
120.00000000000000000000,-0.00056273000000000000
120.00000000000000000000,-0.00052153500000000005
121.00000000000000000000,-0.00037169800000000000
121.00000000000000000000,-0.00015931200000000000
121.00000000000000000000,-0.00000785215000000000
121.00000000000000000000,0.00006030160000000000
121.00000000000000000000,0.00017686199999999999
121.00000000000000000000,0.00038173200000000002
121.00000000000000000000,0.00051620099999999999
121.00000000000000000000,0.00049404600000000005
121.00000000000000000000,0.00036165699999999998
121.00000000000000000000,0.00020208100000000001
121.00000000000000000000,0.00005262520000000000
121.00000000000000000000,-0.00019636999999999999
121.00000000000000000000,-0.00041895300000000001
121.00000000000000000000,-0.00030276599999999999
121.00000000000000000000,0.00009943330000000000
121.00000000000000000000,0.00048110399999999999
121.00000000000000000000,0.00065148500000000004
121.00000000000000000000,0.00064540599999999995
121.00000000000000000000,0.00057227899999999997
121.00000000000000000000,0.00045129499999999999
122.00000000000000000000,0.00028192199999999999
122.00000000000000000000,0.00015089500000000001
122.00000000000000000000,0.00014715099999999999
122.00000000000000000000,0.00021804100000000001
122.00000000000000000000,0.00022877900000000000
122.00000000000000000000,0.00011129500000000000
122.00000000000000000000,-0.00008009700000000000
122.00000000000000000000,-0.00024305500000000000
122.00000000000000000000,-0.00030919200000000002
122.00000000000000000000,-0.00028167200000000001
122.00000000000000000000,-0.00020924700000000000
122.00000000000000000000,-0.00012669800000000001
122.00000000000000000000,-0.00008141530000000000
122.00000000000000000000,-0.00010450600000000001
122.00000000000000000000,-0.00018178600000000000
122.00000000000000000000,-0.00030368499999999999
122.00000000000000000000,-0.00041763000000000000
122.00000000000000000000,-0.00043313700000000000
122.00000000000000000000,-0.00035539799999999999
122.00000000000000000000,-0.00028783900000000002
123.00000000000000000000,-0.00033684500000000000
123.00000000000000000000,-0.00045031200000000002
123.00000000000000000000,-0.00041480199999999998
123.00000000000000000000,-0.00017548499999999999
123.00000000000000000000,0.00009083450000000000
123.00000000000000000000,0.00021837899999999999
123.00000000000000000000,0.00019221000000000000
123.00000000000000000000,0.00009390970000000001
123.00000000000000000000,-0.00000999946000000000
123.00000000000000000000,-0.00007655120000000001
123.00000000000000000000,-0.00008432910000000001
123.00000000000000000000,-0.00004021920000000000
123.00000000000000000000,0.00001294670000000000
123.00000000000000000000,0.00002690740000000000
123.00000000000000000000,-0.00001798280000000000
123.00000000000000000000,-0.00006164420000000000
123.00000000000000000000,0.00002028190000000000
123.00000000000000000000,0.00024505700000000002
123.00000000000000000000,0.00043721599999999998
123.00000000000000000000,0.00044907200000000001
124.00000000000000000000,0.00035357699999999999
124.00000000000000000000,0.00030526099999999998
124.00000000000000000000,0.00036153599999999998
124.00000000000000000000,0.00044142100000000000
124.00000000000000000000,0.00039808800000000000
124.00000000000000000000,0.00011667500000000000
124.00000000000000000000,-0.00028803999999999999
124.00000000000000000000,-0.00034768400000000001
124.00000000000000000000,0.00009663760000000000
124.00000000000000000000,0.00065623700000000005
124.00000000000000000000,0.00099288900000000005
124.00000000000000000000,0.00104367000000000001
124.00000000000000000000,0.00092093100000000005
124.00000000000000000000,0.00071442000000000001
124.00000000000000000000,0.00047343400000000001
124.00000000000000000000,0.00025013699999999999
124.00000000000000000000,0.00014652299999999999
124.00000000000000000000,0.00021117200000000000
124.00000000000000000000,0.00035926300000000002
124.00000000000000000000,0.00046398199999999999
125.00000000000000000000,0.00046101099999999999
125.00000000000000000000,0.00032317300000000000
125.00000000000000000000,0.00003434920000000000
125.00000000000000000000,-0.00037709300000000000
125.00000000000000000000,-0.00078362600000000005
125.00000000000000000000,-0.00085186400000000003
125.00000000000000000000,-0.00045495500000000000
125.00000000000000000000,0.00006392749999999999
125.00000000000000000000,0.00027137500000000002
125.00000000000000000000,0.00006634079999999999
125.00000000000000000000,-0.00011141600000000001
125.00000000000000000000,0.00001172090000000000
125.00000000000000000000,0.00020227400000000001
125.00000000000000000000,0.00018095800000000000
125.00000000000000000000,-0.00008167100000000000
125.00000000000000000000,-0.00033278600000000001
125.00000000000000000000,-0.00043910400000000000
125.00000000000000000000,-0.00044511699999999997
125.00000000000000000000,-0.00045498799999999997
125.00000000000000000000,-0.00052585600000000000
126.00000000000000000000,-0.00066460700000000000
126.00000000000000000000,-0.00077219099999999998
126.00000000000000000000,-0.00069994299999999996
126.00000000000000000000,-0.00041206599999999999
126.00000000000000000000,-0.00004930530000000000
126.00000000000000000000,0.00018048100000000000
126.00000000000000000000,0.00017470499999999999
126.00000000000000000000,-0.00006168870000000000
126.00000000000000000000,-0.00042871400000000002
126.00000000000000000000,-0.00062590499999999995
126.00000000000000000000,-0.00030256300000000000
126.00000000000000000000,0.00037710800000000002
126.00000000000000000000,0.00086080300000000005
126.00000000000000000000,0.00084337900000000000
126.00000000000000000000,0.00043338399999999998
126.00000000000000000000,-0.00002906550000000000
126.00000000000000000000,-0.00015260700000000000
126.00000000000000000000,0.00001830540000000000
126.00000000000000000000,0.00015895800000000001
126.00000000000000000000,0.00013538200000000000
