Frame,EMG1
1.00000000000000000000,0.00004371100000000000
1.00000000000000000000,0.00004280680000000000
1.00000000000000000000,0.00003996690000000000
1.00000000000000000000,0.00003508470000000000
1.00000000000000000000,0.00002967830000000000
1.00000000000000000000,0.00002832370000000000
1.00000000000000000000,0.00003260970000000000
1.00000000000000000000,0.00003802180000000000
1.00000000000000000000,0.00004057020000000000
1.00000000000000000000,0.00004218340000000000
1.00000000000000000000,0.00004299000000000000
1.00000000000000000000,0.00004001310000000000
1.00000000000000000000,0.00003563710000000000
1.00000000000000000000,0.00003533990000000000
1.00000000000000000000,0.00003811310000000000
1.00000000000000000000,0.00003965910000000000
1.00000000000000000000,0.00004009750000000000
1.00000000000000000000,0.00004148660000000000
1.00000000000000000000,0.00004304380000000000
1.00000000000000000000,0.00004340730000000000
2.00000000000000000000,0.00004281030000000000
2.00000000000000000000,0.00004122140000000000
2.00000000000000000000,0.00003962060000000000
2.00000000000000000000,0.00004080040000000000
2.00000000000000000000,0.00004336720000000000
2.00000000000000000000,0.00004356960000000000
2.00000000000000000000,0.00004162100000000000
2.00000000000000000000,0.00003907090000000000
2.00000000000000000000,0.00003698710000000000
2.00000000000000000000,0.00003700360000000000
2.00000000000000000000,0.00003918160000000000
2.00000000000000000000,0.00003994160000000000
2.00000000000000000000,0.00003703360000000000
2.00000000000000000000,0.00003341280000000000
2.00000000000000000000,0.00003266000000000000
2.00000000000000000000,0.00003422580000000000
2.00000000000000000000,0.00003600220000000000
2.00000000000000000000,0.00003640960000000000
2.00000000000000000000,0.00003506730000000000
2.00000000000000000000,0.00003407870000000000
3.00000000000000000000,0.00003544350000000000
3.00000000000000000000,0.00003820920000000000
3.00000000000000000000,0.00003967570000000000
3.00000000000000000000,0.00003804000000000000
3.00000000000000000000,0.00003507300000000000
3.00000000000000000000,0.00003592590000000000
3.00000000000000000000,0.00004162290000000000
3.00000000000000000000,0.00004557320000000000
3.00000000000000000000,0.00004496800000000000
3.00000000000000000000,0.00004414280000000000
3.00000000000000000000,0.00004354710000000000
3.00000000000000000000,0.00004190200000000000
3.00000000000000000000,0.00004141230000000000
3.00000000000000000000,0.00004137740000000000
3.00000000000000000000,0.00003979190000000000
3.00000000000000000000,0.00003833540000000000
3.00000000000000000000,0.00003713520000000000
3.00000000000000000000,0.00003575900000000000
3.00000000000000000000,0.00003604640000000000
3.00000000000000000000,0.00003670860000000000
4.00000000000000000000,0.00003622640000000000
4.00000000000000000000,0.00003664360000000000
4.00000000000000000000,0.00003749760000000000
4.00000000000000000000,0.00003660530000000000
4.00000000000000000000,0.00003569570000000000
4.00000000000000000000,0.00003622970000000000
4.00000000000000000000,0.00003514330000000000
4.00000000000000000000,0.00003166220000000000
4.00000000000000000000,0.00003108890000000000
4.00000000000000000000,0.00003615360000000000
4.00000000000000000000,0.00004175290000000000
4.00000000000000000000,0.00004307380000000000
4.00000000000000000000,0.00004211210000000000
4.00000000000000000000,0.00004238410000000000
4.00000000000000000000,0.00004562820000000000
4.00000000000000000000,0.00005069790000000000
4.00000000000000000000,0.00005237850000000000
4.00000000000000000000,0.00004891470000000000
4.00000000000000000000,0.00004274960000000000
4.00000000000000000000,0.00003705650000000000
5.00000000000000000000,0.00003501180000000000
5.00000000000000000000,0.00003507640000000000
5.00000000000000000000,0.00003606540000000000
5.00000000000000000000,0.00004096230000000000
5.00000000000000000000,0.00004641720000000000
5.00000000000000000000,0.00004586590000000000
5.00000000000000000000,0.00004081630000000000
5.00000000000000000000,0.00003736260000000000
5.00000000000000000000,0.00003872410000000000
5.00000000000000000000,0.00004159550000000000
5.00000000000000000000,0.00004167450000000000
5.00000000000000000000,0.00003959510000000000
5.00000000000000000000,0.00003808550000000000
5.00000000000000000000,0.00003715230000000000
5.00000000000000000000,0.00003692030000000000
5.00000000000000000000,0.00003939000000000000
5.00000000000000000000,0.00004327210000000000
5.00000000000000000000,0.00004467060000000000
5.00000000000000000000,0.00004300010000000000
5.00000000000000000000,0.00003986420000000000
6.00000000000000000000,0.00003686140000000000
6.00000000000000000000,0.00003758170000000000
6.00000000000000000000,0.00004093720000000000
6.00000000000000000000,0.00004163480000000000
6.00000000000000000000,0.00003939390000000000
6.00000000000000000000,0.00003719580000000000
6.00000000000000000000,0.00003586340000000000
6.00000000000000000000,0.00003569860000000000
6.00000000000000000000,0.00003658600000000000
6.00000000000000000000,0.00003693120000000000
6.00000000000000000000,0.00003606200000000000
6.00000000000000000000,0.00003522990000000000
6.00000000000000000000,0.00003574040000000000
6.00000000000000000000,0.00003440300000000000
6.00000000000000000000,0.00002904780000000000
6.00000000000000000000,0.00002590120000000000
6.00000000000000000000,0.00002939320000000000
6.00000000000000000000,0.00003559690000000000
6.00000000000000000000,0.00003927150000000000
6.00000000000000000000,0.00003835600000000000
7.00000000000000000000,0.00003476500000000000
7.00000000000000000000,0.00003357900000000000
7.00000000000000000000,0.00003722420000000000
7.00000000000000000000,0.00004327860000000000
7.00000000000000000000,0.00004806320000000000
7.00000000000000000000,0.00004880510000000000
7.00000000000000000000,0.00004626650000000000
7.00000000000000000000,0.00004415500000000000
7.00000000000000000000,0.00004430150000000000
7.00000000000000000000,0.00004588640000000000
7.00000000000000000000,0.00004732920000000000
7.00000000000000000000,0.00004660020000000000
7.00000000000000000000,0.00004135160000000000
7.00000000000000000000,0.00003462030000000000
7.00000000000000000000,0.00003395720000000000
7.00000000000000000000,0.00003682760000000000
7.00000000000000000000,0.00003695030000000000
7.00000000000000000000,0.00003571090000000000
7.00000000000000000000,0.00003607400000000000
7.00000000000000000000,0.00003716080000000000
8.00000000000000000000,0.00003629650000000000
8.00000000000000000000,0.00003375450000000000
8.00000000000000000000,0.00003221400000000000
8.00000000000000000000,0.00003379770000000000
8.00000000000000000000,0.00003662630000000000
8.00000000000000000000,0.00003842470000000000
8.00000000000000000000,0.00004142440000000000
8.00000000000000000000,0.00004679630000000000
8.00000000000000000000,0.00005180100000000000
8.00000000000000000000,0.00005442930000000000
8.00000000000000000000,0.00005443190000000000
8.00000000000000000000,0.00005285980000000000
8.00000000000000000000,0.00005143030000000000
8.00000000000000000000,0.00004992040000000000
8.00000000000000000000,0.00004741910000000000
8.00000000000000000000,0.00004562310000000000
8.00000000000000000000,0.00004674630000000000
8.00000000000000000000,0.00004883200000000000
8.00000000000000000000,0.00004965870000000000
8.00000000000000000000,0.00004971710000000000
9.00000000000000000000,0.00004880370000000000
9.00000000000000000000,0.00004696370000000000
9.00000000000000000000,0.00004523370000000000
9.00000000000000000000,0.00004668560000000000
9.00000000000000000000,0.00005019380000000000
9.00000000000000000000,0.00005019650000000000
9.00000000000000000000,0.00004499400000000000
9.00000000000000000000,0.00003741390000000000
9.00000000000000000000,0.00003167660000000000
9.00000000000000000000,0.00002952810000000000
9.00000000000000000000,0.00003128580000000000
9.00000000000000000000,0.00003611840000000000
9.00000000000000000000,0.00004167930000000000
9.00000000000000000000,0.00004528010000000000
9.00000000000000000000,0.00004638880000000000
9.00000000000000000000,0.00004661060000000000
9.00000000000000000000,0.00004698350000000000
9.00000000000000000000,0.00004756230000000000
9.00000000000000000000,0.00004804990000000000
9.00000000000000000000,0.00004706880000000000
10.00000000000000000000,0.00004422810000000000
10.00000000000000000000,0.00004202720000000000
10.00000000000000000000,0.00004275860000000000
10.00000000000000000000,0.00004726600000000000
10.00000000000000000000,0.00005067980000000000
10.00000000000000000000,0.00004868520000000000
10.00000000000000000000,0.00004680050000000000
10.00000000000000000000,0.00004600540000000000
10.00000000000000000000,0.00004323900000000000
10.00000000000000000000,0.00004118750000000000
10.00000000000000000000,0.00003982170000000000
10.00000000000000000000,0.00003562720000000000
10.00000000000000000000,0.00003087020000000000
10.00000000000000000000,0.00003073070000000000
10.00000000000000000000,0.00003441320000000000
10.00000000000000000000,0.00003854430000000000
10.00000000000000000000,0.00004211930000000000
10.00000000000000000000,0.00004474910000000000
10.00000000000000000000,0.00004566500000000000
10.00000000000000000000,0.00004490840000000000
11.00000000000000000000,0.00004304890000000000
11.00000000000000000000,0.00004165280000000000
11.00000000000000000000,0.00004152210000000000
11.00000000000000000000,0.00004141970000000000
11.00000000000000000000,0.00004054510000000000
11.00000000000000000000,0.00003853300000000000
11.00000000000000000000,0.00003465630000000000
11.00000000000000000000,0.00003083100000000000
11.00000000000000000000,0.00003100950000000000
11.00000000000000000000,0.00003576210000000000
11.00000000000000000000,0.00004133480000000000
11.00000000000000000000,0.00004330320000000000
11.00000000000000000000,0.00004172130000000000
11.00000000000000000000,0.00003913290000000000
11.00000000000000000000,0.00003648790000000000
11.00000000000000000000,0.00003654890000000000
11.00000000000000000000,0.00004018860000000000
11.00000000000000000000,0.00004432350000000000
11.00000000000000000000,0.00004720440000000000
11.00000000000000000000,0.00004974140000000000
12.00000000000000000000,0.00005183280000000000
12.00000000000000000000,0.00005064110000000000
12.00000000000000000000,0.00004662330000000000
12.00000000000000000000,0.00004372000000000000
12.00000000000000000000,0.00004176860000000000
12.00000000000000000000,0.00003901160000000000
12.00000000000000000000,0.00003724900000000000
12.00000000000000000000,0.00003765750000000000
12.00000000000000000000,0.00003851920000000000
12.00000000000000000000,0.00003791010000000000
12.00000000000000000000,0.00003596420000000000
12.00000000000000000000,0.00003448020000000000
12.00000000000000000000,0.00003404510000000000
12.00000000000000000000,0.00003340640000000000
12.00000000000000000000,0.00003436030000000000
12.00000000000000000000,0.00003994200000000000
12.00000000000000000000,0.00004611940000000000
12.00000000000000000000,0.00004775630000000000
12.00000000000000000000,0.00004649380000000000
12.00000000000000000000,0.00004409770000000000
13.00000000000000000000,0.00004144010000000000
13.00000000000000000000,0.00004001240000000000
13.00000000000000000000,0.00004021040000000000
13.00000000000000000000,0.00003954100000000000
13.00000000000000000000,0.00003889360000000000
13.00000000000000000000,0.00004023140000000000
13.00000000000000000000,0.00003849890000000000
13.00000000000000000000,0.00003152280000000000
13.00000000000000000000,0.00002436620000000000
13.00000000000000000000,0.00002205970000000000
13.00000000000000000000,0.00002570930000000000
13.00000000000000000000,0.00003235850000000000
13.00000000000000000000,0.00003568080000000000
13.00000000000000000000,0.00003416780000000000
13.00000000000000000000,0.00003226620000000000
13.00000000000000000000,0.00003233230000000000
13.00000000000000000000,0.00003428370000000000
13.00000000000000000000,0.00003738860000000000
13.00000000000000000000,0.00003860760000000000
13.00000000000000000000,0.00003646510000000000
14.00000000000000000000,0.00003408710000000000
14.00000000000000000000,0.00003580000000000000
14.00000000000000000000,0.00004143160000000000
14.00000000000000000000,0.00004359470000000000
14.00000000000000000000,0.00003990170000000000
14.00000000000000000000,0.00003792700000000000
14.00000000000000000000,0.00003922570000000000
14.00000000000000000000,0.00003875480000000000
14.00000000000000000000,0.00003603800000000000
14.00000000000000000000,0.00003435660000000000
14.00000000000000000000,0.00003464080000000000
14.00000000000000000000,0.00003692200000000000
14.00000000000000000000,0.00004043910000000000
14.00000000000000000000,0.00004173730000000000
14.00000000000000000000,0.00004162750000000000
14.00000000000000000000,0.00004218240000000000
14.00000000000000000000,0.00004092480000000000
14.00000000000000000000,0.00003743030000000000
14.00000000000000000000,0.00003500930000000000
14.00000000000000000000,0.00003472240000000000
15.00000000000000000000,0.00003622390000000000
15.00000000000000000000,0.00003847300000000000
15.00000000000000000000,0.00004024770000000000
15.00000000000000000000,0.00004165990000000000
15.00000000000000000000,0.00004188040000000000
15.00000000000000000000,0.00004067750000000000
15.00000000000000000000,0.00004002510000000000
15.00000000000000000000,0.00004014790000000000
15.00000000000000000000,0.00003939210000000000
15.00000000000000000000,0.00003841720000000000
15.00000000000000000000,0.00003939480000000000
15.00000000000000000000,0.00004067140000000000
15.00000000000000000000,0.00003910840000000000
15.00000000000000000000,0.00003726770000000000
15.00000000000000000000,0.00003844770000000000
15.00000000000000000000,0.00003904020000000000
15.00000000000000000000,0.00003636250000000000
15.00000000000000000000,0.00003533640000000000
15.00000000000000000000,0.00004108870000000000
15.00000000000000000000,0.00004846430000000000
16.00000000000000000000,0.00004875060000000000
16.00000000000000000000,0.00004493500000000000
16.00000000000000000000,0.00004336820000000000
16.00000000000000000000,0.00004441540000000000
16.00000000000000000000,0.00004750630000000000
16.00000000000000000000,0.00005232580000000000
16.00000000000000000000,0.00005563720000000000
16.00000000000000000000,0.00005439860000000000
16.00000000000000000000,0.00004998570000000000
16.00000000000000000000,0.00004630720000000000
16.00000000000000000000,0.00004613550000000000
16.00000000000000000000,0.00004758570000000000
16.00000000000000000000,0.00004695510000000000
16.00000000000000000000,0.00004631040000000000
16.00000000000000000000,0.00004691870000000000
16.00000000000000000000,0.00004448850000000000
16.00000000000000000000,0.00003997830000000000
16.00000000000000000000,0.00003787330000000000
16.00000000000000000000,0.00003875110000000000
16.00000000000000000000,0.00003894040000000000
17.00000000000000000000,0.00003731660000000000
17.00000000000000000000,0.00003688730000000000
17.00000000000000000000,0.00003782490000000000
17.00000000000000000000,0.00003909930000000000
17.00000000000000000000,0.00004145360000000000
17.00000000000000000000,0.00004390220000000000
17.00000000000000000000,0.00004229900000000000
17.00000000000000000000,0.00003822620000000000
17.00000000000000000000,0.00003625180000000000
17.00000000000000000000,0.00003591640000000000
17.00000000000000000000,0.00003787230000000000
17.00000000000000000000,0.00004312390000000000
17.00000000000000000000,0.00004839300000000000
17.00000000000000000000,0.00004999320000000000
17.00000000000000000000,0.00004825870000000000
17.00000000000000000000,0.00004673140000000000
17.00000000000000000000,0.00004794350000000000
17.00000000000000000000,0.00005115760000000000
17.00000000000000000000,0.00005203120000000000
17.00000000000000000000,0.00004761430000000000
18.00000000000000000000,0.00004301440000000000
18.00000000000000000000,0.00004310790000000000
18.00000000000000000000,0.00004506250000000000
18.00000000000000000000,0.00004544690000000000
18.00000000000000000000,0.00004497820000000000
18.00000000000000000000,0.00004335850000000000
18.00000000000000000000,0.00004112700000000000
18.00000000000000000000,0.00004185280000000000
18.00000000000000000000,0.00004584960000000000
18.00000000000000000000,0.00004960840000000000
18.00000000000000000000,0.00004994420000000000
18.00000000000000000000,0.00004870580000000000
18.00000000000000000000,0.00004860110000000000
18.00000000000000000000,0.00004775530000000000
18.00000000000000000000,0.00004282840000000000
18.00000000000000000000,0.00003779640000000000
18.00000000000000000000,0.00003660160000000000
18.00000000000000000000,0.00003570350000000000
18.00000000000000000000,0.00003390510000000000
18.00000000000000000000,0.00003363700000000000
19.00000000000000000000,0.00003632850000000000
19.00000000000000000000,0.00004024200000000000
19.00000000000000000000,0.00004268920000000000
19.00000000000000000000,0.00004242650000000000
19.00000000000000000000,0.00004149630000000000
19.00000000000000000000,0.00004281540000000000
19.00000000000000000000,0.00004410370000000000
19.00000000000000000000,0.00004130050000000000
19.00000000000000000000,0.00003599870000000000
19.00000000000000000000,0.00003137330000000000
19.00000000000000000000,0.00003006240000000000
19.00000000000000000000,0.00003404010000000000
19.00000000000000000000,0.00004050600000000000
19.00000000000000000000,0.00004482250000000000
19.00000000000000000000,0.00004366020000000000
19.00000000000000000000,0.00003751830000000000
19.00000000000000000000,0.00003309410000000000
19.00000000000000000000,0.00003286960000000000
19.00000000000000000000,0.00003186810000000000
19.00000000000000000000,0.00003090630000000000
20.00000000000000000000,0.00003337840000000000
20.00000000000000000000,0.00003718560000000000
20.00000000000000000000,0.00004144370000000000
20.00000000000000000000,0.00004482620000000000
20.00000000000000000000,0.00004445930000000000
20.00000000000000000000,0.00004355220000000000
20.00000000000000000000,0.00004492760000000000
20.00000000000000000000,0.00004537740000000000
20.00000000000000000000,0.00004389900000000000
20.00000000000000000000,0.00004356710000000000
20.00000000000000000000,0.00004384150000000000
20.00000000000000000000,0.00004172450000000000
20.00000000000000000000,0.00003701770000000000
20.00000000000000000000,0.00003270450000000000
20.00000000000000000000,0.00003211460000000000
20.00000000000000000000,0.00003516310000000000
20.00000000000000000000,0.00003812360000000000
20.00000000000000000000,0.00003805210000000000
20.00000000000000000000,0.00003660400000000000
20.00000000000000000000,0.00003667730000000000
21.00000000000000000000,0.00003810700000000000
21.00000000000000000000,0.00003801090000000000
21.00000000000000000000,0.00003618640000000000
21.00000000000000000000,0.00003728120000000000
21.00000000000000000000,0.00004168190000000000
21.00000000000000000000,0.00004331180000000000
21.00000000000000000000,0.00004167740000000000
21.00000000000000000000,0.00004038940000000000
21.00000000000000000000,0.00003825100000000000
21.00000000000000000000,0.00003553040000000000
21.00000000000000000000,0.00003450850000000000
21.00000000000000000000,0.00003558340000000000
21.00000000000000000000,0.00003789770000000000
21.00000000000000000000,0.00003905870000000000
21.00000000000000000000,0.00003964860000000000
21.00000000000000000000,0.00004056720000000000
21.00000000000000000000,0.00003807560000000000
21.00000000000000000000,0.00003203310000000000
21.00000000000000000000,0.00003001380000000000
21.00000000000000000000,0.00003446740000000000
22.00000000000000000000,0.00003962540000000000
22.00000000000000000000,0.00004278080000000000
22.00000000000000000000,0.00004375980000000000
22.00000000000000000000,0.00004088910000000000
22.00000000000000000000,0.00003709690000000000
22.00000000000000000000,0.00003698250000000000
22.00000000000000000000,0.00003780170000000000
22.00000000000000000000,0.00003810490000000000
22.00000000000000000000,0.00004094620000000000
22.00000000000000000000,0.00004390510000000000
22.00000000000000000000,0.00004490440000000000
22.00000000000000000000,0.00004405680000000000
22.00000000000000000000,0.00004234670000000000
22.00000000000000000000,0.00004476280000000000
22.00000000000000000000,0.00004836870000000000
22.00000000000000000000,0.00004658100000000000
22.00000000000000000000,0.00004242530000000000
22.00000000000000000000,0.00004001540000000000
22.00000000000000000000,0.00003902320000000000
22.00000000000000000000,0.00003913220000000000
23.00000000000000000000,0.00004051550000000000
23.00000000000000000000,0.00004207170000000000
23.00000000000000000000,0.00004158960000000000
23.00000000000000000000,0.00003863020000000000
23.00000000000000000000,0.00003657310000000000
23.00000000000000000000,0.00003828460000000000
23.00000000000000000000,0.00004168910000000000
23.00000000000000000000,0.00004374120000000000
23.00000000000000000000,0.00004293120000000000
23.00000000000000000000,0.00003780430000000000
23.00000000000000000000,0.00002981960000000000
23.00000000000000000000,0.00002580260000000000
23.00000000000000000000,0.00003030960000000000
23.00000000000000000000,0.00003651490000000000
23.00000000000000000000,0.00003625200000000000
23.00000000000000000000,0.00003297630000000000
23.00000000000000000000,0.00003188980000000000
23.00000000000000000000,0.00003002550000000000
23.00000000000000000000,0.00002466590000000000
23.00000000000000000000,0.00002137710000000000
24.00000000000000000000,0.00002540560000000000
24.00000000000000000000,0.00003201050000000000
24.00000000000000000000,0.00003512560000000000
24.00000000000000000000,0.00003447190000000000
24.00000000000000000000,0.00003267720000000000
24.00000000000000000000,0.00003105500000000000
24.00000000000000000000,0.00003003960000000000
24.00000000000000000000,0.00003120330000000000
24.00000000000000000000,0.00003472540000000000
24.00000000000000000000,0.00003899310000000000
24.00000000000000000000,0.00004088520000000000
24.00000000000000000000,0.00003983490000000000
24.00000000000000000000,0.00003917780000000000
24.00000000000000000000,0.00003956470000000000
24.00000000000000000000,0.00003939590000000000
24.00000000000000000000,0.00003959730000000000
24.00000000000000000000,0.00004130880000000000
24.00000000000000000000,0.00004496080000000000
24.00000000000000000000,0.00005060990000000000
24.00000000000000000000,0.00005578230000000000
25.00000000000000000000,0.00005664290000000000
25.00000000000000000000,0.00005488330000000000
25.00000000000000000000,0.00005391720000000000
25.00000000000000000000,0.00005292760000000000
25.00000000000000000000,0.00005166610000000000
25.00000000000000000000,0.00004923980000000000
25.00000000000000000000,0.00004655000000000000
25.00000000000000000000,0.00004520370000000000
25.00000000000000000000,0.00004350000000000000
25.00000000000000000000,0.00004008280000000000
25.00000000000000000000,0.00003636320000000000
25.00000000000000000000,0.00003475180000000000
25.00000000000000000000,0.00003666780000000000
25.00000000000000000000,0.00004194640000000000
25.00000000000000000000,0.00004767600000000000
25.00000000000000000000,0.00004984000000000000
25.00000000000000000000,0.00004742070000000000
25.00000000000000000000,0.00004372670000000000
25.00000000000000000000,0.00004193100000000000
25.00000000000000000000,0.00004139310000000000
26.00000000000000000000,0.00004094660000000000
26.00000000000000000000,0.00004114540000000000
26.00000000000000000000,0.00004162610000000000
26.00000000000000000000,0.00004142140000000000
26.00000000000000000000,0.00004085290000000000
26.00000000000000000000,0.00004276800000000000
26.00000000000000000000,0.00004834930000000000
26.00000000000000000000,0.00005180530000000000
26.00000000000000000000,0.00004865670000000000
26.00000000000000000000,0.00004360330000000000
26.00000000000000000000,0.00004192720000000000
26.00000000000000000000,0.00004358250000000000
26.00000000000000000000,0.00004437120000000000
26.00000000000000000000,0.00004209510000000000
26.00000000000000000000,0.00003970580000000000
26.00000000000000000000,0.00003958700000000000
26.00000000000000000000,0.00004206050000000000
26.00000000000000000000,0.00004453690000000000
26.00000000000000000000,0.00004380980000000000
26.00000000000000000000,0.00003988980000000000
27.00000000000000000000,0.00003686380000000000
27.00000000000000000000,0.00003890310000000000
27.00000000000000000000,0.00004380480000000000
27.00000000000000000000,0.00004559370000000000
27.00000000000000000000,0.00004287270000000000
27.00000000000000000000,0.00003901650000000000
27.00000000000000000000,0.00003759270000000000
27.00000000000000000000,0.00004015160000000000
27.00000000000000000000,0.00004405320000000000
27.00000000000000000000,0.00004508380000000000
27.00000000000000000000,0.00004384030000000000
27.00000000000000000000,0.00004397050000000000
27.00000000000000000000,0.00004357490000000000
27.00000000000000000000,0.00004087920000000000
27.00000000000000000000,0.00004001030000000000
27.00000000000000000000,0.00004113160000000000
27.00000000000000000000,0.00004021880000000000
27.00000000000000000000,0.00003890780000000000
27.00000000000000000000,0.00003839200000000000
27.00000000000000000000,0.00003401500000000000
28.00000000000000000000,0.00002913920000000000
28.00000000000000000000,0.00002937790000000000
28.00000000000000000000,0.00003215620000000000
28.00000000000000000000,0.00003404630000000000
28.00000000000000000000,0.00003452390000000000
28.00000000000000000000,0.00003458290000000000
28.00000000000000000000,0.00003457170000000000
28.00000000000000000000,0.00003661760000000000
28.00000000000000000000,0.00004243450000000000
28.00000000000000000000,0.00004859860000000000
28.00000000000000000000,0.00005121190000000000
28.00000000000000000000,0.00005016310000000000
28.00000000000000000000,0.00004793680000000000
28.00000000000000000000,0.00004782110000000000
28.00000000000000000000,0.00004902890000000000
28.00000000000000000000,0.00004881650000000000
28.00000000000000000000,0.00004919090000000000
28.00000000000000000000,0.00005253010000000000
28.00000000000000000000,0.00005465240000000000
28.00000000000000000000,0.00005240150000000000
29.00000000000000000000,0.00005054260000000000
29.00000000000000000000,0.00005225920000000000
29.00000000000000000000,0.00005354030000000000
29.00000000000000000000,0.00004975790000000000
29.00000000000000000000,0.00004267110000000000
29.00000000000000000000,0.00003816900000000000
29.00000000000000000000,0.00003787140000000000
29.00000000000000000000,0.00003799460000000000
29.00000000000000000000,0.00003672950000000000
29.00000000000000000000,0.00003502020000000000
29.00000000000000000000,0.00003253330000000000
29.00000000000000000000,0.00002972610000000000
29.00000000000000000000,0.00002797220000000000
29.00000000000000000000,0.00002632630000000000
29.00000000000000000000,0.00002579430000000000
29.00000000000000000000,0.00002872870000000000
29.00000000000000000000,0.00003244760000000000
29.00000000000000000000,0.00003423000000000000
29.00000000000000000000,0.00003374610000000000
29.00000000000000000000,0.00003116630000000000
30.00000000000000000000,0.00003004810000000000
30.00000000000000000000,0.00003489570000000000
30.00000000000000000000,0.00004203570000000000
30.00000000000000000000,0.00004431770000000000
30.00000000000000000000,0.00004358290000000000
30.00000000000000000000,0.00004536220000000000
30.00000000000000000000,0.00004922480000000000
30.00000000000000000000,0.00005184400000000000
30.00000000000000000000,0.00005326440000000000
30.00000000000000000000,0.00005421600000000000
30.00000000000000000000,0.00005313330000000000
30.00000000000000000000,0.00005169240000000000
30.00000000000000000000,0.00005300600000000000
30.00000000000000000000,0.00005487940000000000
30.00000000000000000000,0.00005334950000000000
30.00000000000000000000,0.00005036520000000000
30.00000000000000000000,0.00004981190000000000
30.00000000000000000000,0.00004931030000000000
30.00000000000000000000,0.00004671230000000000
30.00000000000000000000,0.00004313050000000000
31.00000000000000000000,0.00003882230000000000
31.00000000000000000000,0.00003380140000000000
31.00000000000000000000,0.00002969570000000000
31.00000000000000000000,0.00002848600000000000
31.00000000000000000000,0.00003194320000000000
31.00000000000000000000,0.00003882100000000000
31.00000000000000000000,0.00004335080000000000
31.00000000000000000000,0.00004267840000000000
31.00000000000000000000,0.00004011190000000000
31.00000000000000000000,0.00003906950000000000
31.00000000000000000000,0.00003848720000000000
31.00000000000000000000,0.00003650320000000000
31.00000000000000000000,0.00003386090000000000
31.00000000000000000000,0.00003188290000000000
31.00000000000000000000,0.00003085730000000000
31.00000000000000000000,0.00003238930000000000
31.00000000000000000000,0.00003730340000000000
31.00000000000000000000,0.00004156850000000000
31.00000000000000000000,0.00004293310000000000
31.00000000000000000000,0.00004300390000000000
32.00000000000000000000,0.00004237930000000000
32.00000000000000000000,0.00004253590000000000
32.00000000000000000000,0.00004448120000000000
32.00000000000000000000,0.00004657570000000000
32.00000000000000000000,0.00004690890000000000
32.00000000000000000000,0.00004657040000000000
32.00000000000000000000,0.00004483650000000000
32.00000000000000000000,0.00004067320000000000
32.00000000000000000000,0.00003736040000000000
32.00000000000000000000,0.00003736920000000000
32.00000000000000000000,0.00003950030000000000
32.00000000000000000000,0.00004017660000000000
32.00000000000000000000,0.00003880280000000000
32.00000000000000000000,0.00003832390000000000
32.00000000000000000000,0.00004141800000000000
32.00000000000000000000,0.00004764440000000000
32.00000000000000000000,0.00005351500000000000
32.00000000000000000000,0.00005540910000000000
32.00000000000000000000,0.00005324250000000000
32.00000000000000000000,0.00005137930000000000
33.00000000000000000000,0.00005459960000000000
33.00000000000000000000,0.00005920790000000000
33.00000000000000000000,0.00005864100000000000
33.00000000000000000000,0.00005451220000000000
33.00000000000000000000,0.00004998740000000000
33.00000000000000000000,0.00004463420000000000
33.00000000000000000000,0.00003962490000000000
33.00000000000000000000,0.00003702750000000000
33.00000000000000000000,0.00003602070000000000
33.00000000000000000000,0.00003540270000000000
33.00000000000000000000,0.00003324560000000000
33.00000000000000000000,0.00003054630000000000
33.00000000000000000000,0.00002928780000000000
33.00000000000000000000,0.00002838970000000000
33.00000000000000000000,0.00002808990000000000
33.00000000000000000000,0.00003066650000000000
33.00000000000000000000,0.00003561660000000000
33.00000000000000000000,0.00003778190000000000
33.00000000000000000000,0.00003397370000000000
33.00000000000000000000,0.00002789990000000000
34.00000000000000000000,0.00002542870000000000
34.00000000000000000000,0.00002856480000000000
34.00000000000000000000,0.00003540330000000000
34.00000000000000000000,0.00004132060000000000
34.00000000000000000000,0.00004231430000000000
34.00000000000000000000,0.00004019820000000000
34.00000000000000000000,0.00004024100000000000
34.00000000000000000000,0.00004134750000000000
34.00000000000000000000,0.00003911030000000000
34.00000000000000000000,0.00003413140000000000
34.00000000000000000000,0.00002762540000000000
34.00000000000000000000,0.00002238610000000000
34.00000000000000000000,0.00002479320000000000
34.00000000000000000000,0.00003344330000000000
34.00000000000000000000,0.00003664650000000000
34.00000000000000000000,0.00003166060000000000
34.00000000000000000000,0.00003058720000000000
34.00000000000000000000,0.00003580830000000000
34.00000000000000000000,0.00003886670000000000
34.00000000000000000000,0.00003722210000000000
35.00000000000000000000,0.00003391350000000000
35.00000000000000000000,0.00003136440000000000
35.00000000000000000000,0.00002984850000000000
35.00000000000000000000,0.00002971020000000000
35.00000000000000000000,0.00003163860000000000
35.00000000000000000000,0.00003491740000000000
35.00000000000000000000,0.00003701230000000000
35.00000000000000000000,0.00003615110000000000
35.00000000000000000000,0.00003371020000000000
35.00000000000000000000,0.00003235910000000000
35.00000000000000000000,0.00003136110000000000
35.00000000000000000000,0.00002946440000000000
35.00000000000000000000,0.00002792590000000000
35.00000000000000000000,0.00002957730000000000
35.00000000000000000000,0.00003308320000000000
35.00000000000000000000,0.00003419570000000000
35.00000000000000000000,0.00003371090000000000
35.00000000000000000000,0.00003340340000000000
35.00000000000000000000,0.00003606970000000000
35.00000000000000000000,0.00004172800000000000
36.00000000000000000000,0.00004308130000000000
36.00000000000000000000,0.00003986970000000000
36.00000000000000000000,0.00003848630000000000
36.00000000000000000000,0.00004326590000000000
36.00000000000000000000,0.00005217970000000000
36.00000000000000000000,0.00005796130000000000
36.00000000000000000000,0.00005843860000000000
36.00000000000000000000,0.00005546470000000000
36.00000000000000000000,0.00005051340000000000
36.00000000000000000000,0.00004649550000000000
36.00000000000000000000,0.00004514440000000000
36.00000000000000000000,0.00004488690000000000
36.00000000000000000000,0.00004573430000000000
36.00000000000000000000,0.00004668470000000000
36.00000000000000000000,0.00004355400000000000
36.00000000000000000000,0.00003698820000000000
36.00000000000000000000,0.00003313400000000000
36.00000000000000000000,0.00003441670000000000
36.00000000000000000000,0.00003719530000000000
36.00000000000000000000,0.00003744050000000000
37.00000000000000000000,0.00003580890000000000
37.00000000000000000000,0.00003823000000000000
37.00000000000000000000,0.00004717430000000000
37.00000000000000000000,0.00005473720000000000
37.00000000000000000000,0.00005501800000000000
37.00000000000000000000,0.00005321370000000000
37.00000000000000000000,0.00005288980000000000
37.00000000000000000000,0.00005197790000000000
37.00000000000000000000,0.00004869810000000000
37.00000000000000000000,0.00004281670000000000
37.00000000000000000000,0.00003880970000000000
37.00000000000000000000,0.00004036760000000000
37.00000000000000000000,0.00004541930000000000
37.00000000000000000000,0.00004875770000000000
37.00000000000000000000,0.00004771950000000000
37.00000000000000000000,0.00004523490000000000
37.00000000000000000000,0.00004361810000000000
37.00000000000000000000,0.00004285140000000000
37.00000000000000000000,0.00004295990000000000
37.00000000000000000000,0.00004310450000000000
38.00000000000000000000,0.00004093300000000000
38.00000000000000000000,0.00003608380000000000
38.00000000000000000000,0.00003120110000000000
38.00000000000000000000,0.00002889820000000000
38.00000000000000000000,0.00002980800000000000
38.00000000000000000000,0.00003223650000000000
38.00000000000000000000,0.00003385040000000000
38.00000000000000000000,0.00003429840000000000
38.00000000000000000000,0.00003490620000000000
38.00000000000000000000,0.00003746020000000000
38.00000000000000000000,0.00004251740000000000
38.00000000000000000000,0.00004806700000000000
38.00000000000000000000,0.00005180690000000000
38.00000000000000000000,0.00005273550000000000
38.00000000000000000000,0.00005150000000000000
38.00000000000000000000,0.00004817470000000000
38.00000000000000000000,0.00004299370000000000
38.00000000000000000000,0.00003893850000000000
38.00000000000000000000,0.00003795310000000000
38.00000000000000000000,0.00003938740000000000
39.00000000000000000000,0.00004070750000000000
39.00000000000000000000,0.00003966290000000000
39.00000000000000000000,0.00003625420000000000
39.00000000000000000000,0.00003358750000000000
39.00000000000000000000,0.00003506250000000000
39.00000000000000000000,0.00003818390000000000
39.00000000000000000000,0.00003914770000000000
39.00000000000000000000,0.00003867220000000000
39.00000000000000000000,0.00003894800000000000
39.00000000000000000000,0.00003992100000000000
39.00000000000000000000,0.00004192080000000000
39.00000000000000000000,0.00004534560000000000
39.00000000000000000000,0.00004773190000000000
39.00000000000000000000,0.00004636980000000000
39.00000000000000000000,0.00004213360000000000
39.00000000000000000000,0.00003905730000000000
39.00000000000000000000,0.00003878780000000000
39.00000000000000000000,0.00003891220000000000
39.00000000000000000000,0.00003842900000000000
39.00000000000000000000,0.00004128570000000000
40.00000000000000000000,0.00004649840000000000
40.00000000000000000000,0.00004771790000000000
40.00000000000000000000,0.00004546270000000000
40.00000000000000000000,0.00004287060000000000
40.00000000000000000000,0.00004069010000000000
40.00000000000000000000,0.00003898160000000000
40.00000000000000000000,0.00003702550000000000
40.00000000000000000000,0.00003443220000000000
40.00000000000000000000,0.00003443480000000000
40.00000000000000000000,0.00003734860000000000
40.00000000000000000000,0.00003844500000000000
40.00000000000000000000,0.00003910810000000000
40.00000000000000000000,0.00004203710000000000
40.00000000000000000000,0.00004449420000000000
40.00000000000000000000,0.00004468610000000000
40.00000000000000000000,0.00004482100000000000
40.00000000000000000000,0.00004687380000000000
40.00000000000000000000,0.00004852670000000000
40.00000000000000000000,0.00004524960000000000
40.00000000000000000000,0.00003910430000000000
41.00000000000000000000,0.00003670890000000000
41.00000000000000000000,0.00003901190000000000
41.00000000000000000000,0.00004158760000000000
41.00000000000000000000,0.00004087100000000000
41.00000000000000000000,0.00003708770000000000
41.00000000000000000000,0.00003456730000000000
41.00000000000000000000,0.00003458400000000000
41.00000000000000000000,0.00003334700000000000
41.00000000000000000000,0.00003164310000000000
41.00000000000000000000,0.00002926950000000000
41.00000000000000000000,0.00002461120000000000
41.00000000000000000000,0.00002272810000000000
41.00000000000000000000,0.00002673050000000000
41.00000000000000000000,0.00003265270000000000
41.00000000000000000000,0.00003640450000000000
41.00000000000000000000,0.00003772650000000000
41.00000000000000000000,0.00003813450000000000
41.00000000000000000000,0.00003922910000000000
41.00000000000000000000,0.00004054440000000000
41.00000000000000000000,0.00004027970000000000
42.00000000000000000000,0.00003926610000000000
42.00000000000000000000,0.00004008240000000000
42.00000000000000000000,0.00004332350000000000
42.00000000000000000000,0.00004705500000000000
42.00000000000000000000,0.00004953600000000000
42.00000000000000000000,0.00004951960000000000
42.00000000000000000000,0.00004661000000000000
42.00000000000000000000,0.00004215320000000000
42.00000000000000000000,0.00003947010000000000
42.00000000000000000000,0.00004111910000000000
42.00000000000000000000,0.00004563300000000000
42.00000000000000000000,0.00004968260000000000
42.00000000000000000000,0.00004964470000000000
42.00000000000000000000,0.00004513820000000000
42.00000000000000000000,0.00004256470000000000
42.00000000000000000000,0.00004577600000000000
42.00000000000000000000,0.00005020620000000000
42.00000000000000000000,0.00005095800000000000
42.00000000000000000000,0.00004790560000000000
42.00000000000000000000,0.00004256930000000000
43.00000000000000000000,0.00003816280000000000
43.00000000000000000000,0.00003903990000000000
43.00000000000000000000,0.00004254750000000000
43.00000000000000000000,0.00004505980000000000
43.00000000000000000000,0.00004597270000000000
43.00000000000000000000,0.00004524270000000000
43.00000000000000000000,0.00004348200000000000
43.00000000000000000000,0.00004107680000000000
43.00000000000000000000,0.00003976090000000000
43.00000000000000000000,0.00004114880000000000
43.00000000000000000000,0.00004420700000000000
43.00000000000000000000,0.00004495720000000000
43.00000000000000000000,0.00004307040000000000
43.00000000000000000000,0.00004302980000000000
43.00000000000000000000,0.00004628060000000000
43.00000000000000000000,0.00004704380000000000
43.00000000000000000000,0.00004302120000000000
43.00000000000000000000,0.00004148470000000000
43.00000000000000000000,0.00004328860000000000
43.00000000000000000000,0.00004294210000000000
44.00000000000000000000,0.00004196140000000000
44.00000000000000000000,0.00004211630000000000
44.00000000000000000000,0.00004096950000000000
44.00000000000000000000,0.00003769770000000000
44.00000000000000000000,0.00003547630000000000
44.00000000000000000000,0.00003602930000000000
44.00000000000000000000,0.00003509200000000000
44.00000000000000000000,0.00003039960000000000
44.00000000000000000000,0.00002599310000000000
44.00000000000000000000,0.00002616070000000000
44.00000000000000000000,0.00003199010000000000
44.00000000000000000000,0.00003928960000000000
44.00000000000000000000,0.00004240360000000000
44.00000000000000000000,0.00004033880000000000
44.00000000000000000000,0.00003648610000000000
44.00000000000000000000,0.00003369250000000000
44.00000000000000000000,0.00003246660000000000
44.00000000000000000000,0.00003370910000000000
44.00000000000000000000,0.00003800070000000000
44.00000000000000000000,0.00004287170000000000
45.00000000000000000000,0.00004469500000000000
45.00000000000000000000,0.00004316680000000000
45.00000000000000000000,0.00004038700000000000
45.00000000000000000000,0.00003860790000000000
45.00000000000000000000,0.00003877340000000000
45.00000000000000000000,0.00004052970000000000
45.00000000000000000000,0.00004386560000000000
45.00000000000000000000,0.00004840220000000000
45.00000000000000000000,0.00004870730000000000
45.00000000000000000000,0.00004389410000000000
45.00000000000000000000,0.00004055520000000000
45.00000000000000000000,0.00004106950000000000
45.00000000000000000000,0.00004450200000000000
45.00000000000000000000,0.00004773730000000000
45.00000000000000000000,0.00004694960000000000
45.00000000000000000000,0.00004337880000000000
45.00000000000000000000,0.00004159750000000000
45.00000000000000000000,0.00004322400000000000
45.00000000000000000000,0.00004496720000000000
45.00000000000000000000,0.00004378400000000000
46.00000000000000000000,0.00004097210000000000
46.00000000000000000000,0.00003981050000000000
46.00000000000000000000,0.00004093830000000000
46.00000000000000000000,0.00004236950000000000
46.00000000000000000000,0.00004368810000000000
46.00000000000000000000,0.00004629000000000000
46.00000000000000000000,0.00004986370000000000
46.00000000000000000000,0.00005146190000000000
46.00000000000000000000,0.00004903660000000000
46.00000000000000000000,0.00004428580000000000
46.00000000000000000000,0.00004221670000000000
46.00000000000000000000,0.00004395080000000000
46.00000000000000000000,0.00004479300000000000
46.00000000000000000000,0.00003981970000000000
46.00000000000000000000,0.00003027880000000000
46.00000000000000000000,0.00002393380000000000
46.00000000000000000000,0.00002461240000000000
46.00000000000000000000,0.00002829020000000000
46.00000000000000000000,0.00003017850000000000
46.00000000000000000000,0.00003194340000000000
47.00000000000000000000,0.00003575450000000000
47.00000000000000000000,0.00003986850000000000
47.00000000000000000000,0.00004084550000000000
47.00000000000000000000,0.00003613930000000000
47.00000000000000000000,0.00002956310000000000
47.00000000000000000000,0.00002700440000000000
47.00000000000000000000,0.00002807490000000000
47.00000000000000000000,0.00002888030000000000
47.00000000000000000000,0.00002901390000000000
47.00000000000000000000,0.00003021620000000000
47.00000000000000000000,0.00003265110000000000
47.00000000000000000000,0.00003491750000000000
47.00000000000000000000,0.00003637530000000000
47.00000000000000000000,0.00003716300000000000
47.00000000000000000000,0.00003790250000000000
47.00000000000000000000,0.00003812770000000000
47.00000000000000000000,0.00003782750000000000
47.00000000000000000000,0.00003960800000000000
47.00000000000000000000,0.00004396380000000000
47.00000000000000000000,0.00004653110000000000
48.00000000000000000000,0.00004458820000000000
48.00000000000000000000,0.00004198870000000000
48.00000000000000000000,0.00004267410000000000
48.00000000000000000000,0.00004647730000000000
48.00000000000000000000,0.00004916380000000000
48.00000000000000000000,0.00004730270000000000
48.00000000000000000000,0.00004404420000000000
48.00000000000000000000,0.00004205150000000000
48.00000000000000000000,0.00003955030000000000
48.00000000000000000000,0.00003730810000000000
48.00000000000000000000,0.00003685900000000000
48.00000000000000000000,0.00003754480000000000
48.00000000000000000000,0.00003948390000000000
48.00000000000000000000,0.00004266330000000000
48.00000000000000000000,0.00004472100000000000
48.00000000000000000000,0.00004378910000000000
48.00000000000000000000,0.00004184430000000000
48.00000000000000000000,0.00004196980000000000
48.00000000000000000000,0.00004484220000000000
48.00000000000000000000,0.00004808930000000000
49.00000000000000000000,0.00004931560000000000
49.00000000000000000000,0.00005002590000000000
49.00000000000000000000,0.00005047100000000000
49.00000000000000000000,0.00004730680000000000
49.00000000000000000000,0.00004190020000000000
49.00000000000000000000,0.00003743240000000000
49.00000000000000000000,0.00003613380000000000
49.00000000000000000000,0.00003693910000000000
49.00000000000000000000,0.00003596060000000000
49.00000000000000000000,0.00003583300000000000
49.00000000000000000000,0.00003823010000000000
49.00000000000000000000,0.00004025950000000000
49.00000000000000000000,0.00004103640000000000
49.00000000000000000000,0.00004269460000000000
49.00000000000000000000,0.00004451570000000000
49.00000000000000000000,0.00004373090000000000
49.00000000000000000000,0.00004120150000000000
49.00000000000000000000,0.00003719870000000000
49.00000000000000000000,0.00003280120000000000
49.00000000000000000000,0.00003247580000000000
50.00000000000000000000,0.00003809830000000000
50.00000000000000000000,0.00004489870000000000
50.00000000000000000000,0.00004826280000000000
50.00000000000000000000,0.00004848500000000000
50.00000000000000000000,0.00004726380000000000
50.00000000000000000000,0.00004511990000000000
50.00000000000000000000,0.00004277770000000000
50.00000000000000000000,0.00004212920000000000
50.00000000000000000000,0.00004348410000000000
50.00000000000000000000,0.00004514480000000000
50.00000000000000000000,0.00004559210000000000
50.00000000000000000000,0.00004536630000000000
50.00000000000000000000,0.00004558380000000000
50.00000000000000000000,0.00004468160000000000
50.00000000000000000000,0.00004050890000000000
50.00000000000000000000,0.00003644800000000000
50.00000000000000000000,0.00003820660000000000
50.00000000000000000000,0.00004298200000000000
50.00000000000000000000,0.00004288530000000000
50.00000000000000000000,0.00003792660000000000
51.00000000000000000000,0.00003480060000000000
51.00000000000000000000,0.00003642080000000000
51.00000000000000000000,0.00004081320000000000
51.00000000000000000000,0.00004476970000000000
51.00000000000000000000,0.00004567170000000000
51.00000000000000000000,0.00004329190000000000
51.00000000000000000000,0.00004033430000000000
51.00000000000000000000,0.00003925050000000000
51.00000000000000000000,0.00004096000000000000
51.00000000000000000000,0.00004429240000000000
51.00000000000000000000,0.00004537240000000000
51.00000000000000000000,0.00004323730000000000
51.00000000000000000000,0.00004172100000000000
51.00000000000000000000,0.00004261400000000000
51.00000000000000000000,0.00004255040000000000
51.00000000000000000000,0.00004105620000000000
51.00000000000000000000,0.00004150070000000000
51.00000000000000000000,0.00004408970000000000
51.00000000000000000000,0.00004705930000000000
51.00000000000000000000,0.00004799280000000000
52.00000000000000000000,0.00004448980000000000
52.00000000000000000000,0.00003796580000000000
52.00000000000000000000,0.00003182050000000000
52.00000000000000000000,0.00002888670000000000
52.00000000000000000000,0.00002988900000000000
52.00000000000000000000,0.00003444020000000000
52.00000000000000000000,0.00003985980000000000
52.00000000000000000000,0.00004232310000000000
52.00000000000000000000,0.00004263560000000000
52.00000000000000000000,0.00004358260000000000
52.00000000000000000000,0.00004361130000000000
52.00000000000000000000,0.00004061560000000000
52.00000000000000000000,0.00003846150000000000
52.00000000000000000000,0.00003805170000000000
52.00000000000000000000,0.00003645670000000000
52.00000000000000000000,0.00003542510000000000
52.00000000000000000000,0.00003792260000000000
52.00000000000000000000,0.00004137830000000000
52.00000000000000000000,0.00004256490000000000
52.00000000000000000000,0.00004222720000000000
53.00000000000000000000,0.00004102780000000000
53.00000000000000000000,0.00003840710000000000
53.00000000000000000000,0.00003558460000000000
53.00000000000000000000,0.00003511100000000000
53.00000000000000000000,0.00003688340000000000
53.00000000000000000000,0.00003900780000000000
53.00000000000000000000,0.00003889920000000000
53.00000000000000000000,0.00003581260000000000
53.00000000000000000000,0.00003686130000000000
53.00000000000000000000,0.00004401600000000000
53.00000000000000000000,0.00004600050000000000
53.00000000000000000000,0.00004042660000000000
53.00000000000000000000,0.00003466930000000000
53.00000000000000000000,0.00003199700000000000
53.00000000000000000000,0.00003263250000000000
53.00000000000000000000,0.00003561420000000000
53.00000000000000000000,0.00003942120000000000
53.00000000000000000000,0.00004169480000000000
53.00000000000000000000,0.00004083250000000000
53.00000000000000000000,0.00003900330000000000
54.00000000000000000000,0.00003949380000000000
54.00000000000000000000,0.00004143740000000000
54.00000000000000000000,0.00004197890000000000
54.00000000000000000000,0.00004104440000000000
54.00000000000000000000,0.00004051390000000000
54.00000000000000000000,0.00004109170000000000
54.00000000000000000000,0.00004271170000000000
54.00000000000000000000,0.00004543370000000000
54.00000000000000000000,0.00004866430000000000
54.00000000000000000000,0.00005139940000000000
54.00000000000000000000,0.00005172430000000000
54.00000000000000000000,0.00004865260000000000
54.00000000000000000000,0.00004582190000000000
54.00000000000000000000,0.00004762330000000000
54.00000000000000000000,0.00005293090000000000
54.00000000000000000000,0.00005555630000000000
54.00000000000000000000,0.00005214330000000000
54.00000000000000000000,0.00004759760000000000
54.00000000000000000000,0.00004694290000000000
54.00000000000000000000,0.00004707760000000000
55.00000000000000000000,0.00004307570000000000
55.00000000000000000000,0.00003849510000000000
55.00000000000000000000,0.00003897250000000000
55.00000000000000000000,0.00004270540000000000
55.00000000000000000000,0.00004414750000000000
55.00000000000000000000,0.00004115360000000000
55.00000000000000000000,0.00003732110000000000
55.00000000000000000000,0.00003625170000000000
55.00000000000000000000,0.00003727070000000000
55.00000000000000000000,0.00003787950000000000
55.00000000000000000000,0.00003726760000000000
55.00000000000000000000,0.00003617710000000000
55.00000000000000000000,0.00003445900000000000
55.00000000000000000000,0.00003320210000000000
55.00000000000000000000,0.00003415540000000000
55.00000000000000000000,0.00003458580000000000
55.00000000000000000000,0.00003134150000000000
55.00000000000000000000,0.00002552650000000000
55.00000000000000000000,0.00002087590000000000
55.00000000000000000000,0.00002130590000000000
56.00000000000000000000,0.00002539480000000000
56.00000000000000000000,0.00002662010000000000
56.00000000000000000000,0.00002339930000000000
56.00000000000000000000,0.00002290930000000000
56.00000000000000000000,0.00003061640000000000
56.00000000000000000000,0.00004064900000000000
56.00000000000000000000,0.00004559410000000000
56.00000000000000000000,0.00004603510000000000
56.00000000000000000000,0.00004541820000000000
56.00000000000000000000,0.00004494420000000000
56.00000000000000000000,0.00004502200000000000
56.00000000000000000000,0.00004531730000000000
56.00000000000000000000,0.00004431170000000000
56.00000000000000000000,0.00004294920000000000
56.00000000000000000000,0.00004177500000000000
56.00000000000000000000,0.00004089410000000000
56.00000000000000000000,0.00004129530000000000
56.00000000000000000000,0.00004263260000000000
56.00000000000000000000,0.00004202540000000000
56.00000000000000000000,0.00003832610000000000
57.00000000000000000000,0.00003571090000000000
57.00000000000000000000,0.00003700200000000000
57.00000000000000000000,0.00003875590000000000
57.00000000000000000000,0.00003878650000000000
57.00000000000000000000,0.00004012580000000000
57.00000000000000000000,0.00004302960000000000
57.00000000000000000000,0.00004589750000000000
57.00000000000000000000,0.00004822260000000000
57.00000000000000000000,0.00004827240000000000
57.00000000000000000000,0.00004504170000000000
57.00000000000000000000,0.00004262050000000000
57.00000000000000000000,0.00004497650000000000
57.00000000000000000000,0.00004893910000000000
57.00000000000000000000,0.00004913950000000000
57.00000000000000000000,0.00004448420000000000
57.00000000000000000000,0.00003891070000000000
57.00000000000000000000,0.00003755790000000000
57.00000000000000000000,0.00003890400000000000
57.00000000000000000000,0.00003563360000000000
57.00000000000000000000,0.00002777930000000000
58.00000000000000000000,0.00002484970000000000
58.00000000000000000000,0.00003141760000000000
58.00000000000000000000,0.00004046690000000000
58.00000000000000000000,0.00004547790000000000
58.00000000000000000000,0.00004820170000000000
58.00000000000000000000,0.00004946490000000000
58.00000000000000000000,0.00004662470000000000
58.00000000000000000000,0.00004169830000000000
58.00000000000000000000,0.00003932460000000000
58.00000000000000000000,0.00003896640000000000
58.00000000000000000000,0.00003783830000000000
58.00000000000000000000,0.00003449190000000000
58.00000000000000000000,0.00003033150000000000
58.00000000000000000000,0.00002923280000000000
58.00000000000000000000,0.00003197040000000000
58.00000000000000000000,0.00003695130000000000
58.00000000000000000000,0.00004119940000000000
58.00000000000000000000,0.00004360570000000000
58.00000000000000000000,0.00004497020000000000
58.00000000000000000000,0.00004350410000000000
59.00000000000000000000,0.00004027620000000000
59.00000000000000000000,0.00003930900000000000
59.00000000000000000000,0.00004143450000000000
59.00000000000000000000,0.00004448560000000000
59.00000000000000000000,0.00004570130000000000
59.00000000000000000000,0.00004567630000000000
59.00000000000000000000,0.00004610990000000000
59.00000000000000000000,0.00004532190000000000
59.00000000000000000000,0.00004320310000000000
59.00000000000000000000,0.00004183110000000000
59.00000000000000000000,0.00004143740000000000
59.00000000000000000000,0.00004155560000000000
59.00000000000000000000,0.00004082610000000000
59.00000000000000000000,0.00003925820000000000
59.00000000000000000000,0.00003939650000000000
59.00000000000000000000,0.00004186810000000000
59.00000000000000000000,0.00004426240000000000
59.00000000000000000000,0.00004421480000000000
59.00000000000000000000,0.00004163460000000000
59.00000000000000000000,0.00003830800000000000
60.00000000000000000000,0.00003658020000000000
60.00000000000000000000,0.00003790370000000000
60.00000000000000000000,0.00004028570000000000
60.00000000000000000000,0.00003988890000000000
60.00000000000000000000,0.00003648840000000000
60.00000000000000000000,0.00003562800000000000
60.00000000000000000000,0.00003903760000000000
60.00000000000000000000,0.00004056130000000000
60.00000000000000000000,0.00003946470000000000
60.00000000000000000000,0.00003923650000000000
60.00000000000000000000,0.00004209300000000000
60.00000000000000000000,0.00004532600000000000
60.00000000000000000000,0.00004574690000000000
60.00000000000000000000,0.00004586420000000000
60.00000000000000000000,0.00004601870000000000
60.00000000000000000000,0.00004519290000000000
60.00000000000000000000,0.00004371020000000000
60.00000000000000000000,0.00004166530000000000
60.00000000000000000000,0.00003960260000000000
60.00000000000000000000,0.00004035180000000000
61.00000000000000000000,0.00004511940000000000
61.00000000000000000000,0.00004996220000000000
61.00000000000000000000,0.00005154690000000000
61.00000000000000000000,0.00005030600000000000
61.00000000000000000000,0.00004714660000000000
61.00000000000000000000,0.00004368780000000000
61.00000000000000000000,0.00004148420000000000
61.00000000000000000000,0.00004157910000000000
61.00000000000000000000,0.00004610140000000000
61.00000000000000000000,0.00005211550000000000
61.00000000000000000000,0.00005227210000000000
61.00000000000000000000,0.00004933950000000000
61.00000000000000000000,0.00004884810000000000
61.00000000000000000000,0.00004704080000000000
61.00000000000000000000,0.00004392930000000000
61.00000000000000000000,0.00004468740000000000
61.00000000000000000000,0.00004885050000000000
61.00000000000000000000,0.00005071160000000000
61.00000000000000000000,0.00004921540000000000
61.00000000000000000000,0.00004748050000000000
62.00000000000000000000,0.00004598190000000000
62.00000000000000000000,0.00004513770000000000
62.00000000000000000000,0.00004615550000000000
62.00000000000000000000,0.00004744140000000000
62.00000000000000000000,0.00004543270000000000
62.00000000000000000000,0.00004026400000000000
62.00000000000000000000,0.00003524360000000000
62.00000000000000000000,0.00003308330000000000
62.00000000000000000000,0.00003400400000000000
62.00000000000000000000,0.00003521930000000000
62.00000000000000000000,0.00003472010000000000
62.00000000000000000000,0.00003410110000000000
62.00000000000000000000,0.00003495610000000000
62.00000000000000000000,0.00003537170000000000
62.00000000000000000000,0.00003414790000000000
62.00000000000000000000,0.00003237160000000000
62.00000000000000000000,0.00002922070000000000
62.00000000000000000000,0.00002541560000000000
62.00000000000000000000,0.00002480890000000000
62.00000000000000000000,0.00002664620000000000
63.00000000000000000000,0.00002704440000000000
63.00000000000000000000,0.00002655080000000000
63.00000000000000000000,0.00002902170000000000
63.00000000000000000000,0.00003451690000000000
63.00000000000000000000,0.00003779420000000000
63.00000000000000000000,0.00003703500000000000
63.00000000000000000000,0.00003525910000000000
63.00000000000000000000,0.00003644900000000000
63.00000000000000000000,0.00004119590000000000
63.00000000000000000000,0.00004401310000000000
63.00000000000000000000,0.00004242570000000000
63.00000000000000000000,0.00004003030000000000
63.00000000000000000000,0.00003959190000000000
63.00000000000000000000,0.00004040840000000000
63.00000000000000000000,0.00004083780000000000
63.00000000000000000000,0.00003975140000000000
63.00000000000000000000,0.00003718150000000000
63.00000000000000000000,0.00003435450000000000
63.00000000000000000000,0.00003282970000000000
63.00000000000000000000,0.00003341030000000000
64.00000000000000000000,0.00003369050000000000
64.00000000000000000000,0.00003278060000000000
64.00000000000000000000,0.00003343530000000000
64.00000000000000000000,0.00003511080000000000
64.00000000000000000000,0.00003751560000000000
64.00000000000000000000,0.00004091960000000000
64.00000000000000000000,0.00004388140000000000
64.00000000000000000000,0.00004707760000000000
64.00000000000000000000,0.00005092770000000000
64.00000000000000000000,0.00005494900000000000
64.00000000000000000000,0.00005781160000000000
64.00000000000000000000,0.00005902840000000000
64.00000000000000000000,0.00005844480000000000
64.00000000000000000000,0.00005444610000000000
64.00000000000000000000,0.00004922100000000000
64.00000000000000000000,0.00004598220000000000
64.00000000000000000000,0.00004483330000000000
64.00000000000000000000,0.00004501260000000000
64.00000000000000000000,0.00004509310000000000
64.00000000000000000000,0.00004352650000000000
65.00000000000000000000,0.00003976410000000000
65.00000000000000000000,0.00003319860000000000
65.00000000000000000000,0.00002539950000000000
65.00000000000000000000,0.00002076120000000000
65.00000000000000000000,0.00002045010000000000
65.00000000000000000000,0.00002082440000000000
65.00000000000000000000,0.00001941070000000000
65.00000000000000000000,0.00001850950000000000
65.00000000000000000000,0.00002139740000000000
65.00000000000000000000,0.00002879320000000000
65.00000000000000000000,0.00003780390000000000
65.00000000000000000000,0.00004408150000000000
65.00000000000000000000,0.00004469860000000000
65.00000000000000000000,0.00004235060000000000
65.00000000000000000000,0.00004073200000000000
65.00000000000000000000,0.00003883810000000000
65.00000000000000000000,0.00003602910000000000
65.00000000000000000000,0.00003415030000000000
65.00000000000000000000,0.00003504530000000000
65.00000000000000000000,0.00003802960000000000
66.00000000000000000000,0.00004145380000000000
66.00000000000000000000,0.00004330730000000000
66.00000000000000000000,0.00004300720000000000
66.00000000000000000000,0.00004241040000000000
66.00000000000000000000,0.00004249170000000000
66.00000000000000000000,0.00004238460000000000
66.00000000000000000000,0.00004226130000000000
66.00000000000000000000,0.00004365360000000000
66.00000000000000000000,0.00004647290000000000
66.00000000000000000000,0.00004893230000000000
66.00000000000000000000,0.00004974800000000000
66.00000000000000000000,0.00004921490000000000
66.00000000000000000000,0.00004836600000000000
66.00000000000000000000,0.00004814910000000000
66.00000000000000000000,0.00004880840000000000
66.00000000000000000000,0.00004925710000000000
66.00000000000000000000,0.00004857370000000000
66.00000000000000000000,0.00004767650000000000
66.00000000000000000000,0.00004557060000000000
66.00000000000000000000,0.00004199730000000000
67.00000000000000000000,0.00004043580000000000
67.00000000000000000000,0.00004182100000000000
67.00000000000000000000,0.00004263620000000000
67.00000000000000000000,0.00004078160000000000
67.00000000000000000000,0.00004008990000000000
67.00000000000000000000,0.00004247080000000000
67.00000000000000000000,0.00004396620000000000
67.00000000000000000000,0.00004238070000000000
67.00000000000000000000,0.00003915070000000000
67.00000000000000000000,0.00003649940000000000
67.00000000000000000000,0.00003603070000000000
67.00000000000000000000,0.00003656140000000000
67.00000000000000000000,0.00003632690000000000
67.00000000000000000000,0.00003667580000000000
67.00000000000000000000,0.00003956310000000000
67.00000000000000000000,0.00004317220000000000
67.00000000000000000000,0.00004472090000000000
67.00000000000000000000,0.00004380100000000000
67.00000000000000000000,0.00004257390000000000
67.00000000000000000000,0.00004355660000000000
68.00000000000000000000,0.00004535400000000000
68.00000000000000000000,0.00004602490000000000
68.00000000000000000000,0.00004627770000000000
68.00000000000000000000,0.00004719240000000000
68.00000000000000000000,0.00004865350000000000
68.00000000000000000000,0.00004811530000000000
68.00000000000000000000,0.00004371490000000000
68.00000000000000000000,0.00003997210000000000
68.00000000000000000000,0.00004081530000000000
68.00000000000000000000,0.00004237500000000000
68.00000000000000000000,0.00004092200000000000
68.00000000000000000000,0.00003918620000000000
68.00000000000000000000,0.00003919980000000000
68.00000000000000000000,0.00003917290000000000
68.00000000000000000000,0.00003759380000000000
68.00000000000000000000,0.00003596260000000000
68.00000000000000000000,0.00003765440000000000
68.00000000000000000000,0.00004217620000000000
68.00000000000000000000,0.00004505970000000000
68.00000000000000000000,0.00004332510000000000
69.00000000000000000000,0.00003857620000000000
69.00000000000000000000,0.00003412910000000000
69.00000000000000000000,0.00003231800000000000
69.00000000000000000000,0.00003315170000000000
69.00000000000000000000,0.00003354200000000000
69.00000000000000000000,0.00003219330000000000
69.00000000000000000000,0.00003263490000000000
69.00000000000000000000,0.00003494070000000000
69.00000000000000000000,0.00003536730000000000
69.00000000000000000000,0.00003554360000000000
69.00000000000000000000,0.00003751010000000000
69.00000000000000000000,0.00003929040000000000
69.00000000000000000000,0.00003924890000000000
69.00000000000000000000,0.00003794500000000000
69.00000000000000000000,0.00003584900000000000
69.00000000000000000000,0.00003322610000000000
69.00000000000000000000,0.00003110910000000000
69.00000000000000000000,0.00002887340000000000
69.00000000000000000000,0.00002924230000000000
69.00000000000000000000,0.00003476950000000000
70.00000000000000000000,0.00004085240000000000
70.00000000000000000000,0.00004239420000000000
70.00000000000000000000,0.00004002620000000000
70.00000000000000000000,0.00003844790000000000
70.00000000000000000000,0.00004044130000000000
70.00000000000000000000,0.00004508210000000000
70.00000000000000000000,0.00004796910000000000
70.00000000000000000000,0.00004565050000000000
70.00000000000000000000,0.00004160800000000000
70.00000000000000000000,0.00004078490000000000
70.00000000000000000000,0.00004275390000000000
70.00000000000000000000,0.00004478530000000000
70.00000000000000000000,0.00004547240000000000
70.00000000000000000000,0.00004487330000000000
70.00000000000000000000,0.00004487340000000000
70.00000000000000000000,0.00004552310000000000
70.00000000000000000000,0.00004449790000000000
70.00000000000000000000,0.00004263590000000000
70.00000000000000000000,0.00004156980000000000
70.00000000000000000000,0.00004323590000000000
71.00000000000000000000,0.00004502350000000000
71.00000000000000000000,0.00004116280000000000
71.00000000000000000000,0.00003782650000000000
71.00000000000000000000,0.00003999980000000000
71.00000000000000000000,0.00004304570000000000
71.00000000000000000000,0.00004501400000000000
71.00000000000000000000,0.00004637140000000000
71.00000000000000000000,0.00004767100000000000
71.00000000000000000000,0.00004735400000000000
71.00000000000000000000,0.00004494120000000000
71.00000000000000000000,0.00004278150000000000
71.00000000000000000000,0.00004326000000000000
71.00000000000000000000,0.00004717430000000000
71.00000000000000000000,0.00005167440000000000
71.00000000000000000000,0.00005367980000000000
71.00000000000000000000,0.00005250690000000000
71.00000000000000000000,0.00005002970000000000
71.00000000000000000000,0.00004804270000000000
71.00000000000000000000,0.00004587680000000000
71.00000000000000000000,0.00004254680000000000
72.00000000000000000000,0.00003914150000000000
72.00000000000000000000,0.00003545170000000000
72.00000000000000000000,0.00003231850000000000
72.00000000000000000000,0.00003355490000000000
72.00000000000000000000,0.00003595700000000000
72.00000000000000000000,0.00003438810000000000
72.00000000000000000000,0.00003254850000000000
72.00000000000000000000,0.00003322630000000000
72.00000000000000000000,0.00003500410000000000
72.00000000000000000000,0.00003607540000000000
72.00000000000000000000,0.00003331220000000000
72.00000000000000000000,0.00003019520000000000
72.00000000000000000000,0.00003228320000000000
72.00000000000000000000,0.00003688650000000000
72.00000000000000000000,0.00003889620000000000
72.00000000000000000000,0.00003813830000000000
72.00000000000000000000,0.00003806770000000000
72.00000000000000000000,0.00003832390000000000
72.00000000000000000000,0.00003821450000000000
72.00000000000000000000,0.00004049570000000000
73.00000000000000000000,0.00004420960000000000
73.00000000000000000000,0.00004522190000000000
73.00000000000000000000,0.00004273490000000000
73.00000000000000000000,0.00003888100000000000
73.00000000000000000000,0.00003597710000000000
73.00000000000000000000,0.00003648290000000000
73.00000000000000000000,0.00003954490000000000
73.00000000000000000000,0.00004225080000000000
73.00000000000000000000,0.00004444760000000000
73.00000000000000000000,0.00004613470000000000
73.00000000000000000000,0.00004637170000000000
73.00000000000000000000,0.00004410710000000000
73.00000000000000000000,0.00003958680000000000
73.00000000000000000000,0.00003566560000000000
73.00000000000000000000,0.00003521160000000000
73.00000000000000000000,0.00003658710000000000
73.00000000000000000000,0.00003796090000000000
73.00000000000000000000,0.00004065370000000000
73.00000000000000000000,0.00004383720000000000
73.00000000000000000000,0.00004760410000000000
74.00000000000000000000,0.00005013820000000000
74.00000000000000000000,0.00004917150000000000
74.00000000000000000000,0.00004595410000000000
74.00000000000000000000,0.00004240460000000000
74.00000000000000000000,0.00004082090000000000
74.00000000000000000000,0.00004257460000000000
74.00000000000000000000,0.00004728240000000000
74.00000000000000000000,0.00005193280000000000
74.00000000000000000000,0.00005233960000000000
74.00000000000000000000,0.00004814350000000000
74.00000000000000000000,0.00004468070000000000
74.00000000000000000000,0.00004573740000000000
74.00000000000000000000,0.00004977120000000000
74.00000000000000000000,0.00005156240000000000
74.00000000000000000000,0.00004979330000000000
74.00000000000000000000,0.00004796630000000000
74.00000000000000000000,0.00004597040000000000
74.00000000000000000000,0.00004233350000000000
74.00000000000000000000,0.00003881040000000000
74.00000000000000000000,0.00003827500000000000
75.00000000000000000000,0.00004053680000000000
75.00000000000000000000,0.00004229580000000000
75.00000000000000000000,0.00004357450000000000
75.00000000000000000000,0.00004643790000000000
75.00000000000000000000,0.00004766740000000000
75.00000000000000000000,0.00004425480000000000
75.00000000000000000000,0.00004079070000000000
75.00000000000000000000,0.00004078190000000000
75.00000000000000000000,0.00004028510000000000
75.00000000000000000000,0.00003799240000000000
75.00000000000000000000,0.00003701250000000000
75.00000000000000000000,0.00003632840000000000
75.00000000000000000000,0.00003584760000000000
75.00000000000000000000,0.00003789440000000000
75.00000000000000000000,0.00004080980000000000
75.00000000000000000000,0.00004143380000000000
75.00000000000000000000,0.00003876140000000000
75.00000000000000000000,0.00003514250000000000
75.00000000000000000000,0.00003483160000000000
75.00000000000000000000,0.00003788930000000000
76.00000000000000000000,0.00003997160000000000
76.00000000000000000000,0.00004001580000000000
76.00000000000000000000,0.00004066570000000000
76.00000000000000000000,0.00004208180000000000
76.00000000000000000000,0.00004236140000000000
76.00000000000000000000,0.00004193170000000000
76.00000000000000000000,0.00004338950000000000
76.00000000000000000000,0.00004641660000000000
76.00000000000000000000,0.00004799450000000000
76.00000000000000000000,0.00004928860000000000
76.00000000000000000000,0.00005244730000000000
76.00000000000000000000,0.00005329860000000000
76.00000000000000000000,0.00004847670000000000
76.00000000000000000000,0.00004264830000000000
76.00000000000000000000,0.00003742460000000000
76.00000000000000000000,0.00003267790000000000
76.00000000000000000000,0.00003182150000000000
76.00000000000000000000,0.00003434980000000000
76.00000000000000000000,0.00003528040000000000
76.00000000000000000000,0.00003411910000000000
77.00000000000000000000,0.00003403830000000000
77.00000000000000000000,0.00003392610000000000
77.00000000000000000000,0.00003191830000000000
77.00000000000000000000,0.00002980690000000000
77.00000000000000000000,0.00002895210000000000
77.00000000000000000000,0.00002752980000000000
77.00000000000000000000,0.00002480750000000000
77.00000000000000000000,0.00002306770000000000
77.00000000000000000000,0.00002449570000000000
77.00000000000000000000,0.00002641750000000000
77.00000000000000000000,0.00002784150000000000
77.00000000000000000000,0.00003131720000000000
77.00000000000000000000,0.00003459420000000000
77.00000000000000000000,0.00003583530000000000
77.00000000000000000000,0.00003697360000000000
77.00000000000000000000,0.00003776070000000000
77.00000000000000000000,0.00003951280000000000
77.00000000000000000000,0.00004049310000000000
77.00000000000000000000,0.00003615410000000000
77.00000000000000000000,0.00003281860000000000
78.00000000000000000000,0.00003664870000000000
78.00000000000000000000,0.00004178340000000000
78.00000000000000000000,0.00004370960000000000
78.00000000000000000000,0.00004329000000000000
78.00000000000000000000,0.00004116140000000000
78.00000000000000000000,0.00003855180000000000
78.00000000000000000000,0.00003812480000000000
78.00000000000000000000,0.00004143840000000000
78.00000000000000000000,0.00004479640000000000
78.00000000000000000000,0.00004333030000000000
78.00000000000000000000,0.00003843440000000000
78.00000000000000000000,0.00003630170000000000
78.00000000000000000000,0.00003990810000000000
78.00000000000000000000,0.00004627950000000000
78.00000000000000000000,0.00004980560000000000
78.00000000000000000000,0.00004870330000000000
78.00000000000000000000,0.00004582440000000000
78.00000000000000000000,0.00004320730000000000
78.00000000000000000000,0.00004101860000000000
78.00000000000000000000,0.00003819790000000000
79.00000000000000000000,0.00003506940000000000
79.00000000000000000000,0.00003337520000000000
79.00000000000000000000,0.00003158210000000000
79.00000000000000000000,0.00002893200000000000
79.00000000000000000000,0.00002833120000000000
79.00000000000000000000,0.00002959490000000000
79.00000000000000000000,0.00002973380000000000
79.00000000000000000000,0.00003114750000000000
79.00000000000000000000,0.00003336710000000000
79.00000000000000000000,0.00003079200000000000
79.00000000000000000000,0.00002546000000000000
79.00000000000000000000,0.00002285160000000000
79.00000000000000000000,0.00002346120000000000
79.00000000000000000000,0.00002501300000000000
79.00000000000000000000,0.00002636240000000000
79.00000000000000000000,0.00002755000000000000
79.00000000000000000000,0.00002998200000000000
79.00000000000000000000,0.00003339200000000000
79.00000000000000000000,0.00003510600000000000
79.00000000000000000000,0.00003590940000000000
80.00000000000000000000,0.00003938970000000000
80.00000000000000000000,0.00004417350000000000
80.00000000000000000000,0.00004625630000000000
80.00000000000000000000,0.00004593430000000000
80.00000000000000000000,0.00004652870000000000
80.00000000000000000000,0.00005052790000000000
80.00000000000000000000,0.00005510080000000000
80.00000000000000000000,0.00005601370000000000
80.00000000000000000000,0.00005324240000000000
80.00000000000000000000,0.00004804570000000000
80.00000000000000000000,0.00004273840000000000
80.00000000000000000000,0.00004264210000000000
80.00000000000000000000,0.00004794890000000000
80.00000000000000000000,0.00005275170000000000
80.00000000000000000000,0.00005521620000000000
80.00000000000000000000,0.00005545790000000000
80.00000000000000000000,0.00005315560000000000
80.00000000000000000000,0.00004911960000000000
80.00000000000000000000,0.00004552490000000000
80.00000000000000000000,0.00004422040000000000
81.00000000000000000000,0.00004612690000000000
81.00000000000000000000,0.00004909500000000000
81.00000000000000000000,0.00004984310000000000
81.00000000000000000000,0.00004893470000000000
81.00000000000000000000,0.00004736490000000000
81.00000000000000000000,0.00004448710000000000
81.00000000000000000000,0.00004142020000000000
81.00000000000000000000,0.00004124130000000000
81.00000000000000000000,0.00004339890000000000
81.00000000000000000000,0.00004487570000000000
81.00000000000000000000,0.00004564600000000000
81.00000000000000000000,0.00004614100000000000
81.00000000000000000000,0.00004597540000000000
81.00000000000000000000,0.00004611160000000000
81.00000000000000000000,0.00004703580000000000
81.00000000000000000000,0.00004731410000000000
81.00000000000000000000,0.00004598220000000000
81.00000000000000000000,0.00004595680000000000
81.00000000000000000000,0.00004664830000000000
81.00000000000000000000,0.00004665020000000000
82.00000000000000000000,0.00004709530000000000
82.00000000000000000000,0.00004691690000000000
82.00000000000000000000,0.00004384140000000000
82.00000000000000000000,0.00003924760000000000
82.00000000000000000000,0.00003662940000000000
82.00000000000000000000,0.00003518820000000000
82.00000000000000000000,0.00003386440000000000
82.00000000000000000000,0.00003406810000000000
82.00000000000000000000,0.00003611590000000000
82.00000000000000000000,0.00003893890000000000
82.00000000000000000000,0.00004181370000000000
82.00000000000000000000,0.00004287540000000000
82.00000000000000000000,0.00004133750000000000
82.00000000000000000000,0.00003917280000000000
82.00000000000000000000,0.00003837140000000000
82.00000000000000000000,0.00003930600000000000
82.00000000000000000000,0.00004153280000000000
82.00000000000000000000,0.00004298620000000000
82.00000000000000000000,0.00004262220000000000
82.00000000000000000000,0.00004064150000000000
83.00000000000000000000,0.00003790130000000000
83.00000000000000000000,0.00003670810000000000
83.00000000000000000000,0.00003604630000000000
83.00000000000000000000,0.00003720810000000000
83.00000000000000000000,0.00004202450000000000
83.00000000000000000000,0.00004504130000000000
83.00000000000000000000,0.00004295370000000000
83.00000000000000000000,0.00003769010000000000
83.00000000000000000000,0.00003352740000000000
83.00000000000000000000,0.00003336600000000000
83.00000000000000000000,0.00003512780000000000
83.00000000000000000000,0.00003420950000000000
83.00000000000000000000,0.00003123570000000000
83.00000000000000000000,0.00002892980000000000
83.00000000000000000000,0.00002754710000000000
83.00000000000000000000,0.00002812250000000000
83.00000000000000000000,0.00003081770000000000
83.00000000000000000000,0.00003425670000000000
83.00000000000000000000,0.00003596950000000000
83.00000000000000000000,0.00003466640000000000
84.00000000000000000000,0.00003257070000000000
84.00000000000000000000,0.00003276560000000000
84.00000000000000000000,0.00003331750000000000
84.00000000000000000000,0.00003130620000000000
84.00000000000000000000,0.00002895370000000000
84.00000000000000000000,0.00003049070000000000
84.00000000000000000000,0.00003507130000000000
84.00000000000000000000,0.00003809440000000000
84.00000000000000000000,0.00003576550000000000
84.00000000000000000000,0.00003034850000000000
84.00000000000000000000,0.00003016580000000000
84.00000000000000000000,0.00003642950000000000
84.00000000000000000000,0.00003988860000000000
84.00000000000000000000,0.00003811810000000000
84.00000000000000000000,0.00003913930000000000
84.00000000000000000000,0.00004379110000000000
84.00000000000000000000,0.00004335610000000000
84.00000000000000000000,0.00003667760000000000
84.00000000000000000000,0.00003408790000000000
84.00000000000000000000,0.00003755420000000000
85.00000000000000000000,0.00003898540000000000
85.00000000000000000000,0.00003680540000000000
85.00000000000000000000,0.00003571750000000000
85.00000000000000000000,0.00003804110000000000
85.00000000000000000000,0.00004198060000000000
85.00000000000000000000,0.00004374710000000000
85.00000000000000000000,0.00004153670000000000
85.00000000000000000000,0.00003858410000000000
85.00000000000000000000,0.00003912440000000000
85.00000000000000000000,0.00004195380000000000
85.00000000000000000000,0.00004157180000000000
85.00000000000000000000,0.00003734170000000000
85.00000000000000000000,0.00003561670000000000
85.00000000000000000000,0.00003747210000000000
85.00000000000000000000,0.00003818550000000000
85.00000000000000000000,0.00003761000000000000
85.00000000000000000000,0.00003797350000000000
85.00000000000000000000,0.00003778930000000000
85.00000000000000000000,0.00003578750000000000
85.00000000000000000000,0.00003783590000000000
86.00000000000000000000,0.00004481170000000000
86.00000000000000000000,0.00004836610000000000
86.00000000000000000000,0.00004593160000000000
86.00000000000000000000,0.00004336440000000000
86.00000000000000000000,0.00004472120000000000
86.00000000000000000000,0.00004728370000000000
86.00000000000000000000,0.00004715800000000000
86.00000000000000000000,0.00004446770000000000
86.00000000000000000000,0.00004393000000000000
86.00000000000000000000,0.00004717910000000000
86.00000000000000000000,0.00004971300000000000
86.00000000000000000000,0.00004948060000000000
86.00000000000000000000,0.00005019920000000000
86.00000000000000000000,0.00005301920000000000
86.00000000000000000000,0.00005462750000000000
86.00000000000000000000,0.00005368270000000000
86.00000000000000000000,0.00005173320000000000
86.00000000000000000000,0.00004907400000000000
86.00000000000000000000,0.00004324680000000000
86.00000000000000000000,0.00003447580000000000
87.00000000000000000000,0.00002962300000000000
87.00000000000000000000,0.00003341120000000000
87.00000000000000000000,0.00003895410000000000
87.00000000000000000000,0.00003756370000000000
87.00000000000000000000,0.00003419440000000000
87.00000000000000000000,0.00003649590000000000
87.00000000000000000000,0.00003981390000000000
87.00000000000000000000,0.00003702530000000000
87.00000000000000000000,0.00002970220000000000
87.00000000000000000000,0.00002593730000000000
87.00000000000000000000,0.00002801380000000000
87.00000000000000000000,0.00002981680000000000
87.00000000000000000000,0.00002868910000000000
87.00000000000000000000,0.00002960850000000000
87.00000000000000000000,0.00003523120000000000
87.00000000000000000000,0.00004298160000000000
87.00000000000000000000,0.00004827140000000000
87.00000000000000000000,0.00004838600000000000
87.00000000000000000000,0.00004521880000000000
87.00000000000000000000,0.00004219950000000000
88.00000000000000000000,0.00004044690000000000
88.00000000000000000000,0.00004068130000000000
88.00000000000000000000,0.00004463010000000000
88.00000000000000000000,0.00005079740000000000
88.00000000000000000000,0.00005480750000000000
88.00000000000000000000,0.00005429800000000000
88.00000000000000000000,0.00004994880000000000
88.00000000000000000000,0.00004415910000000000
88.00000000000000000000,0.00004003910000000000
88.00000000000000000000,0.00003868650000000000
88.00000000000000000000,0.00004004780000000000
88.00000000000000000000,0.00004495620000000000
88.00000000000000000000,0.00004969860000000000
88.00000000000000000000,0.00005077870000000000
88.00000000000000000000,0.00005088880000000000
88.00000000000000000000,0.00005040930000000000
88.00000000000000000000,0.00005115520000000000
88.00000000000000000000,0.00005376930000000000
88.00000000000000000000,0.00005593840000000000
88.00000000000000000000,0.00005618900000000000
89.00000000000000000000,0.00005468310000000000
89.00000000000000000000,0.00005221590000000000
89.00000000000000000000,0.00004952610000000000
89.00000000000000000000,0.00004763840000000000
89.00000000000000000000,0.00004618750000000000
89.00000000000000000000,0.00004425050000000000
89.00000000000000000000,0.00004192750000000000
89.00000000000000000000,0.00004069840000000000
89.00000000000000000000,0.00004161370000000000
89.00000000000000000000,0.00004363120000000000
89.00000000000000000000,0.00004342530000000000
89.00000000000000000000,0.00004215110000000000
89.00000000000000000000,0.00004112290000000000
89.00000000000000000000,0.00003821130000000000
89.00000000000000000000,0.00003652630000000000
89.00000000000000000000,0.00003868980000000000
89.00000000000000000000,0.00004140400000000000
89.00000000000000000000,0.00004229830000000000
89.00000000000000000000,0.00004060870000000000
89.00000000000000000000,0.00003830400000000000
90.00000000000000000000,0.00003744490000000000
90.00000000000000000000,0.00003922120000000000
90.00000000000000000000,0.00004168180000000000
90.00000000000000000000,0.00004333690000000000
90.00000000000000000000,0.00004578390000000000
90.00000000000000000000,0.00004763460000000000
90.00000000000000000000,0.00004543230000000000
90.00000000000000000000,0.00004033230000000000
90.00000000000000000000,0.00003695080000000000
90.00000000000000000000,0.00003545770000000000
90.00000000000000000000,0.00003423370000000000
90.00000000000000000000,0.00003256310000000000
90.00000000000000000000,0.00003217020000000000
90.00000000000000000000,0.00003466030000000000
90.00000000000000000000,0.00003819420000000000
90.00000000000000000000,0.00003955910000000000
90.00000000000000000000,0.00003811520000000000
90.00000000000000000000,0.00003608190000000000
90.00000000000000000000,0.00003661020000000000
90.00000000000000000000,0.00003828190000000000
91.00000000000000000000,0.00003663640000000000
91.00000000000000000000,0.00003314320000000000
91.00000000000000000000,0.00003133910000000000
91.00000000000000000000,0.00003289520000000000
91.00000000000000000000,0.00003640440000000000
91.00000000000000000000,0.00003727080000000000
91.00000000000000000000,0.00003432380000000000
91.00000000000000000000,0.00003194810000000000
91.00000000000000000000,0.00003280120000000000
91.00000000000000000000,0.00003592960000000000
91.00000000000000000000,0.00004091570000000000
91.00000000000000000000,0.00004596100000000000
91.00000000000000000000,0.00004933900000000000
91.00000000000000000000,0.00004841030000000000
91.00000000000000000000,0.00004216230000000000
91.00000000000000000000,0.00003569620000000000
91.00000000000000000000,0.00003537090000000000
91.00000000000000000000,0.00004021440000000000
91.00000000000000000000,0.00004386110000000000
91.00000000000000000000,0.00004487220000000000
92.00000000000000000000,0.00004607900000000000
92.00000000000000000000,0.00004674770000000000
92.00000000000000000000,0.00004428150000000000
92.00000000000000000000,0.00004063870000000000
92.00000000000000000000,0.00004009280000000000
92.00000000000000000000,0.00004514860000000000
92.00000000000000000000,0.00005114840000000000
92.00000000000000000000,0.00005110730000000000
92.00000000000000000000,0.00004682670000000000
92.00000000000000000000,0.00004488900000000000
92.00000000000000000000,0.00004552440000000000
92.00000000000000000000,0.00004563410000000000
92.00000000000000000000,0.00004614590000000000
92.00000000000000000000,0.00004734420000000000
92.00000000000000000000,0.00004656170000000000
92.00000000000000000000,0.00004227190000000000
92.00000000000000000000,0.00003675600000000000
92.00000000000000000000,0.00003354320000000000
92.00000000000000000000,0.00003171910000000000
92.00000000000000000000,0.00003270730000000000
93.00000000000000000000,0.00003797450000000000
93.00000000000000000000,0.00004341520000000000
93.00000000000000000000,0.00004474080000000000
93.00000000000000000000,0.00004199820000000000
93.00000000000000000000,0.00003840720000000000
93.00000000000000000000,0.00003710920000000000
93.00000000000000000000,0.00003986330000000000
93.00000000000000000000,0.00004399290000000000
93.00000000000000000000,0.00004558950000000000
93.00000000000000000000,0.00004502530000000000
93.00000000000000000000,0.00004597760000000000
93.00000000000000000000,0.00004866250000000000
93.00000000000000000000,0.00005000580000000000
93.00000000000000000000,0.00004752700000000000
93.00000000000000000000,0.00004225450000000000
93.00000000000000000000,0.00003815570000000000
93.00000000000000000000,0.00003719300000000000
93.00000000000000000000,0.00003796130000000000
93.00000000000000000000,0.00003789470000000000
93.00000000000000000000,0.00003456630000000000
94.00000000000000000000,0.00003039540000000000
94.00000000000000000000,0.00003032500000000000
94.00000000000000000000,0.00003344360000000000
94.00000000000000000000,0.00003553880000000000
94.00000000000000000000,0.00003643390000000000
94.00000000000000000000,0.00003663510000000000
94.00000000000000000000,0.00003480600000000000
94.00000000000000000000,0.00003345700000000000
94.00000000000000000000,0.00003394130000000000
94.00000000000000000000,0.00003435890000000000
94.00000000000000000000,0.00003559410000000000
94.00000000000000000000,0.00003885680000000000
94.00000000000000000000,0.00004141310000000000
94.00000000000000000000,0.00004064020000000000
94.00000000000000000000,0.00003724520000000000
94.00000000000000000000,0.00003343360000000000
94.00000000000000000000,0.00003255800000000000
94.00000000000000000000,0.00003630930000000000
94.00000000000000000000,0.00003955260000000000
94.00000000000000000000,0.00003797620000000000
95.00000000000000000000,0.00003423660000000000
95.00000000000000000000,0.00003156500000000000
95.00000000000000000000,0.00003141820000000000
95.00000000000000000000,0.00003235180000000000
95.00000000000000000000,0.00003164060000000000
95.00000000000000000000,0.00003125030000000000
95.00000000000000000000,0.00003527130000000000
95.00000000000000000000,0.00004059930000000000
95.00000000000000000000,0.00004317990000000000
95.00000000000000000000,0.00004364500000000000
95.00000000000000000000,0.00004260910000000000
95.00000000000000000000,0.00004120160000000000
95.00000000000000000000,0.00003830800000000000
95.00000000000000000000,0.00003310780000000000
95.00000000000000000000,0.00003003550000000000
95.00000000000000000000,0.00003295810000000000
95.00000000000000000000,0.00003815640000000000
95.00000000000000000000,0.00004159810000000000
95.00000000000000000000,0.00004456950000000000
95.00000000000000000000,0.00004556360000000000
96.00000000000000000000,0.00004136810000000000
96.00000000000000000000,0.00003554270000000000
96.00000000000000000000,0.00003369160000000000
96.00000000000000000000,0.00003578570000000000
96.00000000000000000000,0.00003864770000000000
96.00000000000000000000,0.00003973220000000000
96.00000000000000000000,0.00003999520000000000
96.00000000000000000000,0.00004145480000000000
96.00000000000000000000,0.00004192500000000000
96.00000000000000000000,0.00003980200000000000
96.00000000000000000000,0.00003732190000000000
96.00000000000000000000,0.00003545100000000000
96.00000000000000000000,0.00003438380000000000
96.00000000000000000000,0.00003559150000000000
96.00000000000000000000,0.00003889620000000000
96.00000000000000000000,0.00004028230000000000
96.00000000000000000000,0.00003858420000000000
96.00000000000000000000,0.00003882370000000000
96.00000000000000000000,0.00004341760000000000
96.00000000000000000000,0.00004920230000000000
97.00000000000000000000,0.00005232850000000000
97.00000000000000000000,0.00005240280000000000
97.00000000000000000000,0.00005126440000000000
97.00000000000000000000,0.00005136170000000000
97.00000000000000000000,0.00005306500000000000
97.00000000000000000000,0.00005298050000000000
97.00000000000000000000,0.00004894330000000000
97.00000000000000000000,0.00004411770000000000
97.00000000000000000000,0.00004310350000000000
97.00000000000000000000,0.00004547950000000000
97.00000000000000000000,0.00004815110000000000
97.00000000000000000000,0.00005003570000000000
97.00000000000000000000,0.00005000440000000000
97.00000000000000000000,0.00004865340000000000
97.00000000000000000000,0.00004847610000000000
97.00000000000000000000,0.00004872450000000000
97.00000000000000000000,0.00004761800000000000
97.00000000000000000000,0.00004403560000000000
97.00000000000000000000,0.00004010580000000000
97.00000000000000000000,0.00003932560000000000
98.00000000000000000000,0.00004130750000000000
98.00000000000000000000,0.00004265360000000000
98.00000000000000000000,0.00004246170000000000
98.00000000000000000000,0.00004097640000000000
98.00000000000000000000,0.00003897590000000000
98.00000000000000000000,0.00003945590000000000
98.00000000000000000000,0.00003954240000000000
98.00000000000000000000,0.00003724220000000000
98.00000000000000000000,0.00003535490000000000
98.00000000000000000000,0.00003466620000000000
98.00000000000000000000,0.00003437160000000000
98.00000000000000000000,0.00003421890000000000
98.00000000000000000000,0.00003547650000000000
98.00000000000000000000,0.00003816560000000000
98.00000000000000000000,0.00004057150000000000
98.00000000000000000000,0.00004163170000000000
98.00000000000000000000,0.00004083040000000000
98.00000000000000000000,0.00003871880000000000
98.00000000000000000000,0.00003800050000000000
98.00000000000000000000,0.00003811120000000000
99.00000000000000000000,0.00003701880000000000
99.00000000000000000000,0.00003665120000000000
99.00000000000000000000,0.00003712430000000000
99.00000000000000000000,0.00003978110000000000
99.00000000000000000000,0.00004548550000000000
99.00000000000000000000,0.00004737730000000000
99.00000000000000000000,0.00004373400000000000
99.00000000000000000000,0.00004009060000000000
99.00000000000000000000,0.00003763460000000000
99.00000000000000000000,0.00003488080000000000
99.00000000000000000000,0.00003392590000000000
99.00000000000000000000,0.00003538980000000000
99.00000000000000000000,0.00003699070000000000
99.00000000000000000000,0.00003651810000000000
99.00000000000000000000,0.00003378550000000000
99.00000000000000000000,0.00003419330000000000
99.00000000000000000000,0.00003860900000000000
99.00000000000000000000,0.00004176820000000000
99.00000000000000000000,0.00004116250000000000
99.00000000000000000000,0.00003877830000000000
100.00000000000000000000,0.00003765770000000000
100.00000000000000000000,0.00003761160000000000
100.00000000000000000000,0.00003788410000000000
100.00000000000000000000,0.00003886270000000000
100.00000000000000000000,0.00003976070000000000
100.00000000000000000000,0.00004005620000000000
100.00000000000000000000,0.00004040200000000000
100.00000000000000000000,0.00004062040000000000
100.00000000000000000000,0.00004039420000000000
100.00000000000000000000,0.00003938250000000000
100.00000000000000000000,0.00003878930000000000
100.00000000000000000000,0.00004022280000000000
100.00000000000000000000,0.00004175430000000000
100.00000000000000000000,0.00004066800000000000
100.00000000000000000000,0.00003789890000000000
100.00000000000000000000,0.00003723180000000000
100.00000000000000000000,0.00003730800000000000
100.00000000000000000000,0.00003495870000000000
100.00000000000000000000,0.00003366210000000000
100.00000000000000000000,0.00003457580000000000
101.00000000000000000000,0.00003567530000000000
101.00000000000000000000,0.00003771020000000000
101.00000000000000000000,0.00003894110000000000
101.00000000000000000000,0.00003591240000000000
101.00000000000000000000,0.00003167040000000000
101.00000000000000000000,0.00003298020000000000
101.00000000000000000000,0.00003862100000000000
101.00000000000000000000,0.00004156480000000000
101.00000000000000000000,0.00003927240000000000
101.00000000000000000000,0.00003549980000000000
101.00000000000000000000,0.00003496880000000000
101.00000000000000000000,0.00003729370000000000
101.00000000000000000000,0.00003796350000000000
101.00000000000000000000,0.00003471180000000000
101.00000000000000000000,0.00003136430000000000
101.00000000000000000000,0.00003165750000000000
101.00000000000000000000,0.00003293020000000000
101.00000000000000000000,0.00003312440000000000
101.00000000000000000000,0.00003507910000000000
101.00000000000000000000,0.00003857620000000000
102.00000000000000000000,0.00004104140000000000
102.00000000000000000000,0.00004231590000000000
102.00000000000000000000,0.00004263000000000000
102.00000000000000000000,0.00004310460000000000
102.00000000000000000000,0.00004256430000000000
102.00000000000000000000,0.00003937210000000000
102.00000000000000000000,0.00003925160000000000
102.00000000000000000000,0.00004354760000000000
102.00000000000000000000,0.00004468210000000000
102.00000000000000000000,0.00004169770000000000
102.00000000000000000000,0.00003872580000000000
102.00000000000000000000,0.00003885710000000000
102.00000000000000000000,0.00004256240000000000
102.00000000000000000000,0.00004677010000000000
102.00000000000000000000,0.00004787290000000000
102.00000000000000000000,0.00004519390000000000
102.00000000000000000000,0.00004228250000000000
102.00000000000000000000,0.00004277920000000000
102.00000000000000000000,0.00004685350000000000
102.00000000000000000000,0.00005185020000000000
103.00000000000000000000,0.00005496690000000000
103.00000000000000000000,0.00005354950000000000
103.00000000000000000000,0.00004692550000000000
103.00000000000000000000,0.00004014800000000000
103.00000000000000000000,0.00003904750000000000
103.00000000000000000000,0.00004301350000000000
103.00000000000000000000,0.00004763860000000000
103.00000000000000000000,0.00004971890000000000
103.00000000000000000000,0.00004900450000000000
103.00000000000000000000,0.00004830690000000000
103.00000000000000000000,0.00005182140000000000
103.00000000000000000000,0.00005550490000000000
103.00000000000000000000,0.00005325100000000000
103.00000000000000000000,0.00004928770000000000
103.00000000000000000000,0.00004666680000000000
103.00000000000000000000,0.00004470050000000000
103.00000000000000000000,0.00004561730000000000
103.00000000000000000000,0.00004863370000000000
103.00000000000000000000,0.00005080560000000000
103.00000000000000000000,0.00005188470000000000
104.00000000000000000000,0.00005268990000000000
104.00000000000000000000,0.00005280050000000000
104.00000000000000000000,0.00005151100000000000
104.00000000000000000000,0.00005001850000000000
104.00000000000000000000,0.00004868750000000000
104.00000000000000000000,0.00004552550000000000
104.00000000000000000000,0.00004117600000000000
104.00000000000000000000,0.00003862960000000000
104.00000000000000000000,0.00003667100000000000
104.00000000000000000000,0.00003340640000000000
104.00000000000000000000,0.00003076890000000000
104.00000000000000000000,0.00003006920000000000
104.00000000000000000000,0.00003183080000000000
104.00000000000000000000,0.00003658670000000000
104.00000000000000000000,0.00004040040000000000
104.00000000000000000000,0.00004094680000000000
104.00000000000000000000,0.00003931060000000000
104.00000000000000000000,0.00003685350000000000
104.00000000000000000000,0.00003461190000000000
104.00000000000000000000,0.00003131630000000000
105.00000000000000000000,0.00003105410000000000
105.00000000000000000000,0.00003796820000000000
105.00000000000000000000,0.00004563890000000000
105.00000000000000000000,0.00004717560000000000
105.00000000000000000000,0.00004462020000000000
105.00000000000000000000,0.00004509450000000000
105.00000000000000000000,0.00004836910000000000
105.00000000000000000000,0.00004733640000000000
105.00000000000000000000,0.00004087400000000000
105.00000000000000000000,0.00003501480000000000
105.00000000000000000000,0.00003353710000000000
105.00000000000000000000,0.00003435100000000000
105.00000000000000000000,0.00003606490000000000
105.00000000000000000000,0.00003987020000000000
105.00000000000000000000,0.00004456810000000000
105.00000000000000000000,0.00004714060000000000
105.00000000000000000000,0.00004678170000000000
105.00000000000000000000,0.00004444760000000000
105.00000000000000000000,0.00004253790000000000
105.00000000000000000000,0.00004242620000000000
106.00000000000000000000,0.00004338150000000000
106.00000000000000000000,0.00004380290000000000
106.00000000000000000000,0.00004312110000000000
106.00000000000000000000,0.00004197510000000000
106.00000000000000000000,0.00003847250000000000
106.00000000000000000000,0.00003057630000000000
106.00000000000000000000,0.00002356810000000000
106.00000000000000000000,0.00002444990000000000
106.00000000000000000000,0.00002805470000000000
106.00000000000000000000,0.00002679140000000000
106.00000000000000000000,0.00002403890000000000
106.00000000000000000000,0.00002479930000000000
106.00000000000000000000,0.00002733980000000000
106.00000000000000000000,0.00002891210000000000
106.00000000000000000000,0.00003074030000000000
106.00000000000000000000,0.00003179800000000000
106.00000000000000000000,0.00003074790000000000
106.00000000000000000000,0.00003121700000000000
106.00000000000000000000,0.00003562490000000000
106.00000000000000000000,0.00004097100000000000
107.00000000000000000000,0.00004457520000000000
107.00000000000000000000,0.00004626590000000000
107.00000000000000000000,0.00004571620000000000
107.00000000000000000000,0.00004297200000000000
107.00000000000000000000,0.00003805330000000000
107.00000000000000000000,0.00003339220000000000
107.00000000000000000000,0.00003248250000000000
107.00000000000000000000,0.00003276960000000000
107.00000000000000000000,0.00003089290000000000
107.00000000000000000000,0.00003071970000000000
107.00000000000000000000,0.00003406120000000000
107.00000000000000000000,0.00003793300000000000
107.00000000000000000000,0.00003984070000000000
107.00000000000000000000,0.00003993070000000000
107.00000000000000000000,0.00003885210000000000
107.00000000000000000000,0.00003839580000000000
107.00000000000000000000,0.00004129050000000000
107.00000000000000000000,0.00004498480000000000
107.00000000000000000000,0.00004718850000000000
107.00000000000000000000,0.00004746970000000000
108.00000000000000000000,0.00004769880000000000
108.00000000000000000000,0.00004959370000000000
108.00000000000000000000,0.00005074670000000000
108.00000000000000000000,0.00004834220000000000
108.00000000000000000000,0.00004338540000000000
108.00000000000000000000,0.00003982690000000000
108.00000000000000000000,0.00003843900000000000
108.00000000000000000000,0.00003707610000000000
108.00000000000000000000,0.00003704820000000000
108.00000000000000000000,0.00003983940000000000
108.00000000000000000000,0.00004197640000000000
108.00000000000000000000,0.00004269820000000000
108.00000000000000000000,0.00004386790000000000
108.00000000000000000000,0.00004499390000000000
108.00000000000000000000,0.00004628220000000000
108.00000000000000000000,0.00004718480000000000
108.00000000000000000000,0.00004679710000000000
108.00000000000000000000,0.00004668020000000000
108.00000000000000000000,0.00004475710000000000
108.00000000000000000000,0.00004213010000000000
109.00000000000000000000,0.00004080180000000000
109.00000000000000000000,0.00004056700000000000
109.00000000000000000000,0.00004266760000000000
109.00000000000000000000,0.00004597620000000000
109.00000000000000000000,0.00004776810000000000
109.00000000000000000000,0.00004590490000000000
109.00000000000000000000,0.00004166780000000000
109.00000000000000000000,0.00003778800000000000
109.00000000000000000000,0.00003694750000000000
109.00000000000000000000,0.00003811920000000000
109.00000000000000000000,0.00003936020000000000
109.00000000000000000000,0.00004075520000000000
109.00000000000000000000,0.00004228950000000000
109.00000000000000000000,0.00004475980000000000
109.00000000000000000000,0.00004892920000000000
109.00000000000000000000,0.00005135100000000000
109.00000000000000000000,0.00005010110000000000
109.00000000000000000000,0.00004863920000000000
109.00000000000000000000,0.00004778290000000000
109.00000000000000000000,0.00004706960000000000
110.00000000000000000000,0.00004802630000000000
110.00000000000000000000,0.00005071470000000000
110.00000000000000000000,0.00005388190000000000
110.00000000000000000000,0.00005711470000000000
110.00000000000000000000,0.00005942400000000000
110.00000000000000000000,0.00005880830000000000
110.00000000000000000000,0.00005445330000000000
110.00000000000000000000,0.00004869350000000000
110.00000000000000000000,0.00004568420000000000
110.00000000000000000000,0.00004665290000000000
110.00000000000000000000,0.00004858060000000000
110.00000000000000000000,0.00004591880000000000
110.00000000000000000000,0.00003739400000000000
110.00000000000000000000,0.00002767840000000000
110.00000000000000000000,0.00002231710000000000
110.00000000000000000000,0.00002336810000000000
110.00000000000000000000,0.00002635770000000000
110.00000000000000000000,0.00002698030000000000
110.00000000000000000000,0.00002566820000000000
110.00000000000000000000,0.00002646640000000000
111.00000000000000000000,0.00003166040000000000
111.00000000000000000000,0.00003881650000000000
111.00000000000000000000,0.00004317150000000000
111.00000000000000000000,0.00004305930000000000
111.00000000000000000000,0.00004138060000000000
111.00000000000000000000,0.00004122600000000000
111.00000000000000000000,0.00004358260000000000
111.00000000000000000000,0.00004530900000000000
111.00000000000000000000,0.00004494700000000000
111.00000000000000000000,0.00004501950000000000
111.00000000000000000000,0.00004294650000000000
111.00000000000000000000,0.00003891460000000000
111.00000000000000000000,0.00003828130000000000
111.00000000000000000000,0.00003876160000000000
111.00000000000000000000,0.00003700390000000000
111.00000000000000000000,0.00003461630000000000
111.00000000000000000000,0.00003129520000000000
111.00000000000000000000,0.00002864950000000000
111.00000000000000000000,0.00002920050000000000
111.00000000000000000000,0.00002866210000000000
112.00000000000000000000,0.00002552270000000000
112.00000000000000000000,0.00002449120000000000
112.00000000000000000000,0.00002892760000000000
112.00000000000000000000,0.00003512210000000000
112.00000000000000000000,0.00003716050000000000
112.00000000000000000000,0.00003498020000000000
112.00000000000000000000,0.00003308700000000000
112.00000000000000000000,0.00003457510000000000
112.00000000000000000000,0.00003814370000000000
112.00000000000000000000,0.00003981020000000000
112.00000000000000000000,0.00003827100000000000
112.00000000000000000000,0.00003596930000000000
112.00000000000000000000,0.00003234610000000000
112.00000000000000000000,0.00002843990000000000
112.00000000000000000000,0.00002951380000000000
112.00000000000000000000,0.00003382440000000000
112.00000000000000000000,0.00003465140000000000
112.00000000000000000000,0.00003302620000000000
112.00000000000000000000,0.00003421290000000000
112.00000000000000000000,0.00003747000000000000
113.00000000000000000000,0.00003735250000000000
113.00000000000000000000,0.00003382100000000000
113.00000000000000000000,0.00003334240000000000
113.00000000000000000000,0.00003415960000000000
113.00000000000000000000,0.00003176870000000000
113.00000000000000000000,0.00002953780000000000
113.00000000000000000000,0.00003028580000000000
113.00000000000000000000,0.00003397530000000000
113.00000000000000000000,0.00004036080000000000
113.00000000000000000000,0.00004723200000000000
113.00000000000000000000,0.00004914250000000000
113.00000000000000000000,0.00004580080000000000
113.00000000000000000000,0.00004255290000000000
113.00000000000000000000,0.00004175140000000000
113.00000000000000000000,0.00004312660000000000
113.00000000000000000000,0.00004533770000000000
113.00000000000000000000,0.00004407380000000000
113.00000000000000000000,0.00003935760000000000
113.00000000000000000000,0.00003654120000000000
113.00000000000000000000,0.00003687970000000000
114.00000000000000000000,0.00003792750000000000
114.00000000000000000000,0.00003724820000000000
114.00000000000000000000,0.00003467920000000000
114.00000000000000000000,0.00003321460000000000
114.00000000000000000000,0.00003189000000000000
114.00000000000000000000,0.00003082570000000000
114.00000000000000000000,0.00003566800000000000
114.00000000000000000000,0.00004353230000000000
114.00000000000000000000,0.00004542860000000000
114.00000000000000000000,0.00004328330000000000
114.00000000000000000000,0.00004458070000000000
114.00000000000000000000,0.00004633800000000000
114.00000000000000000000,0.00004614170000000000
114.00000000000000000000,0.00004566430000000000
114.00000000000000000000,0.00004491290000000000
114.00000000000000000000,0.00004474600000000000
114.00000000000000000000,0.00004501900000000000
114.00000000000000000000,0.00004550510000000000
114.00000000000000000000,0.00004593910000000000
114.00000000000000000000,0.00004445350000000000
115.00000000000000000000,0.00004068380000000000
115.00000000000000000000,0.00003868250000000000
115.00000000000000000000,0.00004123280000000000
115.00000000000000000000,0.00004428120000000000
115.00000000000000000000,0.00004362990000000000
115.00000000000000000000,0.00003974480000000000
115.00000000000000000000,0.00003656580000000000
115.00000000000000000000,0.00003982670000000000
115.00000000000000000000,0.00004575090000000000
115.00000000000000000000,0.00004714610000000000
115.00000000000000000000,0.00004518800000000000
115.00000000000000000000,0.00004463470000000000
115.00000000000000000000,0.00004748380000000000
115.00000000000000000000,0.00004915930000000000
115.00000000000000000000,0.00004596000000000000
115.00000000000000000000,0.00004175890000000000
115.00000000000000000000,0.00004291350000000000
115.00000000000000000000,0.00004744040000000000
115.00000000000000000000,0.00004687730000000000
115.00000000000000000000,0.00004004690000000000
116.00000000000000000000,0.00003470830000000000
116.00000000000000000000,0.00003586590000000000
116.00000000000000000000,0.00003974630000000000
116.00000000000000000000,0.00004239660000000000
116.00000000000000000000,0.00004316380000000000
116.00000000000000000000,0.00004220870000000000
116.00000000000000000000,0.00004001660000000000
116.00000000000000000000,0.00003845870000000000
116.00000000000000000000,0.00003938030000000000
116.00000000000000000000,0.00004107930000000000
116.00000000000000000000,0.00004144070000000000
116.00000000000000000000,0.00004169170000000000
116.00000000000000000000,0.00004267300000000000
116.00000000000000000000,0.00004417200000000000
116.00000000000000000000,0.00004536470000000000
116.00000000000000000000,0.00004383580000000000
116.00000000000000000000,0.00004084890000000000
116.00000000000000000000,0.00004108400000000000
116.00000000000000000000,0.00004336850000000000
116.00000000000000000000,0.00004198500000000000
117.00000000000000000000,0.00004030180000000000
117.00000000000000000000,0.00004047990000000000
117.00000000000000000000,0.00003939880000000000
117.00000000000000000000,0.00003883600000000000
117.00000000000000000000,0.00004196930000000000
117.00000000000000000000,0.00004537580000000000
117.00000000000000000000,0.00004437950000000000
117.00000000000000000000,0.00004090850000000000
117.00000000000000000000,0.00003691160000000000
117.00000000000000000000,0.00003521270000000000
117.00000000000000000000,0.00003721650000000000
117.00000000000000000000,0.00004154750000000000
117.00000000000000000000,0.00004525360000000000
117.00000000000000000000,0.00004551660000000000
117.00000000000000000000,0.00004274190000000000
117.00000000000000000000,0.00004083210000000000
117.00000000000000000000,0.00004251690000000000
117.00000000000000000000,0.00004601330000000000
117.00000000000000000000,0.00004797820000000000
117.00000000000000000000,0.00004676970000000000
118.00000000000000000000,0.00004330310000000000
118.00000000000000000000,0.00004132060000000000
118.00000000000000000000,0.00004346100000000000
118.00000000000000000000,0.00004785740000000000
118.00000000000000000000,0.00005022810000000000
118.00000000000000000000,0.00004860720000000000
118.00000000000000000000,0.00004799100000000000
118.00000000000000000000,0.00005072270000000000
118.00000000000000000000,0.00005292060000000000
118.00000000000000000000,0.00005141860000000000
118.00000000000000000000,0.00004792330000000000
118.00000000000000000000,0.00004512820000000000
118.00000000000000000000,0.00004424370000000000
118.00000000000000000000,0.00004319780000000000
118.00000000000000000000,0.00004078420000000000
118.00000000000000000000,0.00003947240000000000
118.00000000000000000000,0.00004030760000000000
118.00000000000000000000,0.00004168110000000000
118.00000000000000000000,0.00004177100000000000
118.00000000000000000000,0.00004085550000000000
119.00000000000000000000,0.00003949350000000000
119.00000000000000000000,0.00003834150000000000
119.00000000000000000000,0.00003995490000000000
119.00000000000000000000,0.00004519130000000000
119.00000000000000000000,0.00004946070000000000
119.00000000000000000000,0.00005083200000000000
119.00000000000000000000,0.00005160570000000000
119.00000000000000000000,0.00005028750000000000
119.00000000000000000000,0.00004668320000000000
119.00000000000000000000,0.00004199590000000000
119.00000000000000000000,0.00003496470000000000
119.00000000000000000000,0.00003136400000000000
119.00000000000000000000,0.00003602990000000000
119.00000000000000000000,0.00004152530000000000
119.00000000000000000000,0.00004128860000000000
119.00000000000000000000,0.00003821620000000000
119.00000000000000000000,0.00003667950000000000
119.00000000000000000000,0.00003831590000000000
119.00000000000000000000,0.00003971340000000000
119.00000000000000000000,0.00003892880000000000
120.00000000000000000000,0.00003662830000000000
120.00000000000000000000,0.00003402580000000000
120.00000000000000000000,0.00003189720000000000
120.00000000000000000000,0.00003116930000000000
120.00000000000000000000,0.00003241520000000000
120.00000000000000000000,0.00003380860000000000
120.00000000000000000000,0.00003375740000000000
120.00000000000000000000,0.00003301970000000000
120.00000000000000000000,0.00003294090000000000
120.00000000000000000000,0.00003266850000000000
120.00000000000000000000,0.00003229180000000000
120.00000000000000000000,0.00003167570000000000
120.00000000000000000000,0.00003045000000000000
120.00000000000000000000,0.00002939300000000000
120.00000000000000000000,0.00003030960000000000
120.00000000000000000000,0.00003302350000000000
120.00000000000000000000,0.00003474280000000000
120.00000000000000000000,0.00003251880000000000
120.00000000000000000000,0.00002978180000000000
120.00000000000000000000,0.00003195250000000000
121.00000000000000000000,0.00003761070000000000
121.00000000000000000000,0.00004244240000000000
121.00000000000000000000,0.00004392340000000000
121.00000000000000000000,0.00004232300000000000
121.00000000000000000000,0.00004028320000000000
121.00000000000000000000,0.00003817200000000000
121.00000000000000000000,0.00003606730000000000
121.00000000000000000000,0.00003506440000000000
121.00000000000000000000,0.00003503940000000000
121.00000000000000000000,0.00003615450000000000
121.00000000000000000000,0.00003897430000000000
121.00000000000000000000,0.00004037420000000000
121.00000000000000000000,0.00003947560000000000
121.00000000000000000000,0.00004062000000000000
121.00000000000000000000,0.00004487480000000000
121.00000000000000000000,0.00004886610000000000
121.00000000000000000000,0.00004999340000000000
121.00000000000000000000,0.00004909170000000000
121.00000000000000000000,0.00004752410000000000
121.00000000000000000000,0.00004687360000000000
122.00000000000000000000,0.00004781830000000000
122.00000000000000000000,0.00004858020000000000
122.00000000000000000000,0.00004781490000000000
122.00000000000000000000,0.00004697530000000000
122.00000000000000000000,0.00004520150000000000
122.00000000000000000000,0.00004284900000000000
122.00000000000000000000,0.00004332760000000000
122.00000000000000000000,0.00004634140000000000
122.00000000000000000000,0.00004668800000000000
122.00000000000000000000,0.00004323800000000000
122.00000000000000000000,0.00004289190000000000
122.00000000000000000000,0.00004840150000000000
122.00000000000000000000,0.00005349550000000000
122.00000000000000000000,0.00005327010000000000
122.00000000000000000000,0.00005094500000000000
122.00000000000000000000,0.00005025840000000000
122.00000000000000000000,0.00004800940000000000
122.00000000000000000000,0.00004383130000000000
122.00000000000000000000,0.00004130150000000000
122.00000000000000000000,0.00004087660000000000
123.00000000000000000000,0.00004055250000000000
123.00000000000000000000,0.00003800480000000000
123.00000000000000000000,0.00003386050000000000
123.00000000000000000000,0.00003154270000000000
123.00000000000000000000,0.00003040700000000000
123.00000000000000000000,0.00002876190000000000
123.00000000000000000000,0.00002759480000000000
123.00000000000000000000,0.00002571790000000000
123.00000000000000000000,0.00002407430000000000
123.00000000000000000000,0.00002538420000000000
123.00000000000000000000,0.00002919320000000000
123.00000000000000000000,0.00002984630000000000
123.00000000000000000000,0.00002810960000000000
123.00000000000000000000,0.00003047240000000000
123.00000000000000000000,0.00003509400000000000
123.00000000000000000000,0.00003720710000000000
123.00000000000000000000,0.00003755240000000000
123.00000000000000000000,0.00003952520000000000
123.00000000000000000000,0.00004237240000000000
123.00000000000000000000,0.00004483910000000000
124.00000000000000000000,0.00004716620000000000
124.00000000000000000000,0.00004866600000000000
124.00000000000000000000,0.00004880570000000000
124.00000000000000000000,0.00004841840000000000
124.00000000000000000000,0.00004836840000000000
124.00000000000000000000,0.00004793220000000000
124.00000000000000000000,0.00004765960000000000
124.00000000000000000000,0.00004801190000000000
124.00000000000000000000,0.00004813360000000000
124.00000000000000000000,0.00004653300000000000
124.00000000000000000000,0.00004361130000000000
124.00000000000000000000,0.00004174280000000000
124.00000000000000000000,0.00004162160000000000
124.00000000000000000000,0.00004153900000000000
124.00000000000000000000,0.00003898920000000000
124.00000000000000000000,0.00003401020000000000
124.00000000000000000000,0.00003018330000000000
124.00000000000000000000,0.00002862450000000000
124.00000000000000000000,0.00002660680000000000
124.00000000000000000000,0.00002496390000000000
125.00000000000000000000,0.00002743610000000000
125.00000000000000000000,0.00003027270000000000
125.00000000000000000000,0.00002953760000000000
125.00000000000000000000,0.00002968480000000000
125.00000000000000000000,0.00003370850000000000
125.00000000000000000000,0.00003956710000000000
125.00000000000000000000,0.00004254950000000000
125.00000000000000000000,0.00004294660000000000
125.00000000000000000000,0.00004456810000000000
125.00000000000000000000,0.00004637750000000000
125.00000000000000000000,0.00004768160000000000
125.00000000000000000000,0.00005171780000000000
125.00000000000000000000,0.00005695140000000000
125.00000000000000000000,0.00005860000000000000
125.00000000000000000000,0.00005659380000000000
125.00000000000000000000,0.00005266740000000000
125.00000000000000000000,0.00004689490000000000
125.00000000000000000000,0.00004160130000000000
125.00000000000000000000,0.00004111830000000000
125.00000000000000000000,0.00004459280000000000
126.00000000000000000000,0.00004662910000000000
126.00000000000000000000,0.00004355860000000000
126.00000000000000000000,0.00003746650000000000
126.00000000000000000000,0.00003629700000000000
126.00000000000000000000,0.00004035240000000000
126.00000000000000000000,0.00004113460000000000
126.00000000000000000000,0.00003785700000000000
126.00000000000000000000,0.00003502630000000000
126.00000000000000000000,0.00003374420000000000
126.00000000000000000000,0.00003339740000000000
126.00000000000000000000,0.00003265410000000000
126.00000000000000000000,0.00003045370000000000
126.00000000000000000000,0.00003003530000000000
126.00000000000000000000,0.00003184560000000000
126.00000000000000000000,0.00003301760000000000
126.00000000000000000000,0.00003372620000000000
126.00000000000000000000,0.00003530830000000000
126.00000000000000000000,0.00003750670000000000
126.00000000000000000000,0.00003851320000000000
126.00000000000000000000,0.00003685560000000000
127.00000000000000000000,0.00003349220000000000
127.00000000000000000000,0.00003132810000000000
127.00000000000000000000,0.00003143020000000000
127.00000000000000000000,0.00003330560000000000
127.00000000000000000000,0.00003661570000000000
127.00000000000000000000,0.00004034030000000000
127.00000000000000000000,0.00004251510000000000
127.00000000000000000000,0.00004224400000000000
127.00000000000000000000,0.00004011250000000000
127.00000000000000000000,0.00003813190000000000
127.00000000000000000000,0.00003829880000000000
127.00000000000000000000,0.00004036040000000000
127.00000000000000000000,0.00004107280000000000
127.00000000000000000000,0.00003816160000000000
127.00000000000000000000,0.00003793890000000000
127.00000000000000000000,0.00004336940000000000
127.00000000000000000000,0.00004736040000000000
127.00000000000000000000,0.00004813530000000000
127.00000000000000000000,0.00004507960000000000
127.00000000000000000000,0.00003986180000000000
128.00000000000000000000,0.00003812570000000000
128.00000000000000000000,0.00004064770000000000
128.00000000000000000000,0.00004497720000000000
128.00000000000000000000,0.00004807590000000000
