Frame,EMG1
1.00000000000000000000,0.00003469830000000000
1.00000000000000000000,0.00003015740000000000
1.00000000000000000000,0.00003120500000000000
1.00000000000000000000,0.00003548390000000000
1.00000000000000000000,0.00003509150000000000
1.00000000000000000000,0.00003028350000000000
1.00000000000000000000,0.00002766460000000000
1.00000000000000000000,0.00002784330000000000
1.00000000000000000000,0.00002819260000000000
1.00000000000000000000,0.00002943740000000000
1.00000000000000000000,0.00003325220000000000
1.00000000000000000000,0.00003803140000000000
1.00000000000000000000,0.00003884040000000000
1.00000000000000000000,0.00003579560000000000
1.00000000000000000000,0.00003584630000000000
1.00000000000000000000,0.00003928400000000000
1.00000000000000000000,0.00004095690000000000
1.00000000000000000000,0.00004107000000000000
1.00000000000000000000,0.00004172950000000000
1.00000000000000000000,0.00004236380000000000
2.00000000000000000000,0.00004490560000000000
2.00000000000000000000,0.00004838900000000000
2.00000000000000000000,0.00004719700000000000
2.00000000000000000000,0.00004273760000000000
2.00000000000000000000,0.00003869790000000000
2.00000000000000000000,0.00003563290000000000
2.00000000000000000000,0.00003773450000000000
2.00000000000000000000,0.00004445860000000000
2.00000000000000000000,0.00004611260000000000
2.00000000000000000000,0.00004432900000000000
2.00000000000000000000,0.00004396100000000000
2.00000000000000000000,0.00004445350000000000
2.00000000000000000000,0.00004445330000000000
2.00000000000000000000,0.00004406020000000000
2.00000000000000000000,0.00004559190000000000
2.00000000000000000000,0.00004802300000000000
2.00000000000000000000,0.00004949650000000000
2.00000000000000000000,0.00005085570000000000
2.00000000000000000000,0.00005039780000000000
2.00000000000000000000,0.00004741760000000000
3.00000000000000000000,0.00004492530000000000
3.00000000000000000000,0.00004349440000000000
3.00000000000000000000,0.00004177380000000000
3.00000000000000000000,0.00004053250000000000
3.00000000000000000000,0.00004234950000000000
3.00000000000000000000,0.00004519380000000000
3.00000000000000000000,0.00004624650000000000
3.00000000000000000000,0.00004670040000000000
3.00000000000000000000,0.00004578210000000000
3.00000000000000000000,0.00004238760000000000
3.00000000000000000000,0.00004052910000000000
3.00000000000000000000,0.00004304710000000000
3.00000000000000000000,0.00004642760000000000
3.00000000000000000000,0.00004753740000000000
3.00000000000000000000,0.00004584160000000000
3.00000000000000000000,0.00004246650000000000
3.00000000000000000000,0.00004509760000000000
3.00000000000000000000,0.00004985620000000000
3.00000000000000000000,0.00004969030000000000
3.00000000000000000000,0.00004713290000000000
4.00000000000000000000,0.00004337950000000000
4.00000000000000000000,0.00004057000000000000
4.00000000000000000000,0.00004131420000000000
4.00000000000000000000,0.00004306270000000000
4.00000000000000000000,0.00004083090000000000
4.00000000000000000000,0.00003857210000000000
4.00000000000000000000,0.00004022280000000000
4.00000000000000000000,0.00004206360000000000
4.00000000000000000000,0.00003974340000000000
4.00000000000000000000,0.00003697560000000000
4.00000000000000000000,0.00003696900000000000
4.00000000000000000000,0.00003717790000000000
4.00000000000000000000,0.00003711320000000000
4.00000000000000000000,0.00003682090000000000
4.00000000000000000000,0.00003452860000000000
4.00000000000000000000,0.00003287870000000000
4.00000000000000000000,0.00003405870000000000
4.00000000000000000000,0.00003539660000000000
4.00000000000000000000,0.00003406910000000000
4.00000000000000000000,0.00003366580000000000
5.00000000000000000000,0.00003525340000000000
5.00000000000000000000,0.00003623380000000000
5.00000000000000000000,0.00004143090000000000
5.00000000000000000000,0.00004649440000000000
5.00000000000000000000,0.00004260970000000000
5.00000000000000000000,0.00003509520000000000
5.00000000000000000000,0.00003545370000000000
5.00000000000000000000,0.00004137420000000000
5.00000000000000000000,0.00004520420000000000
5.00000000000000000000,0.00004402350000000000
5.00000000000000000000,0.00004047830000000000
5.00000000000000000000,0.00003767800000000000
5.00000000000000000000,0.00003694000000000000
5.00000000000000000000,0.00003713120000000000
5.00000000000000000000,0.00003634340000000000
5.00000000000000000000,0.00003555490000000000
5.00000000000000000000,0.00003664690000000000
5.00000000000000000000,0.00004013660000000000
5.00000000000000000000,0.00004241070000000000
5.00000000000000000000,0.00004197770000000000
6.00000000000000000000,0.00003993090000000000
6.00000000000000000000,0.00003919860000000000
6.00000000000000000000,0.00004006580000000000
6.00000000000000000000,0.00004116170000000000
6.00000000000000000000,0.00004156630000000000
6.00000000000000000000,0.00004319330000000000
6.00000000000000000000,0.00004555560000000000
6.00000000000000000000,0.00004386430000000000
6.00000000000000000000,0.00004246530000000000
6.00000000000000000000,0.00004281960000000000
6.00000000000000000000,0.00004223340000000000
6.00000000000000000000,0.00004191830000000000
6.00000000000000000000,0.00004310240000000000
6.00000000000000000000,0.00004508140000000000
6.00000000000000000000,0.00004517410000000000
6.00000000000000000000,0.00004422310000000000
6.00000000000000000000,0.00004319320000000000
6.00000000000000000000,0.00004448750000000000
6.00000000000000000000,0.00004575010000000000
6.00000000000000000000,0.00004568220000000000
7.00000000000000000000,0.00004427090000000000
7.00000000000000000000,0.00004418520000000000
7.00000000000000000000,0.00004731700000000000
7.00000000000000000000,0.00004846250000000000
7.00000000000000000000,0.00004229680000000000
7.00000000000000000000,0.00003481540000000000
7.00000000000000000000,0.00003531170000000000
7.00000000000000000000,0.00003988080000000000
7.00000000000000000000,0.00003923520000000000
7.00000000000000000000,0.00003581240000000000
7.00000000000000000000,0.00003574130000000000
7.00000000000000000000,0.00003453850000000000
7.00000000000000000000,0.00003328320000000000
7.00000000000000000000,0.00003447260000000000
7.00000000000000000000,0.00003487140000000000
7.00000000000000000000,0.00003221380000000000
7.00000000000000000000,0.00003128180000000000
7.00000000000000000000,0.00002827360000000000
7.00000000000000000000,0.00002327750000000000
7.00000000000000000000,0.00002303380000000000
8.00000000000000000000,0.00002690650000000000
8.00000000000000000000,0.00003072260000000000
8.00000000000000000000,0.00003343540000000000
8.00000000000000000000,0.00003425250000000000
8.00000000000000000000,0.00003505060000000000
8.00000000000000000000,0.00003955680000000000
8.00000000000000000000,0.00004591420000000000
8.00000000000000000000,0.00004942700000000000
8.00000000000000000000,0.00004730410000000000
8.00000000000000000000,0.00004509660000000000
8.00000000000000000000,0.00004388590000000000
8.00000000000000000000,0.00004281800000000000
8.00000000000000000000,0.00004295430000000000
8.00000000000000000000,0.00004355840000000000
8.00000000000000000000,0.00004221560000000000
8.00000000000000000000,0.00004014210000000000
8.00000000000000000000,0.00003863970000000000
8.00000000000000000000,0.00003807380000000000
8.00000000000000000000,0.00003823560000000000
8.00000000000000000000,0.00003666370000000000
9.00000000000000000000,0.00003601220000000000
9.00000000000000000000,0.00003587120000000000
9.00000000000000000000,0.00003779740000000000
9.00000000000000000000,0.00004215970000000000
9.00000000000000000000,0.00003916320000000000
9.00000000000000000000,0.00002993090000000000
9.00000000000000000000,0.00002476580000000000
9.00000000000000000000,0.00002633830000000000
9.00000000000000000000,0.00002845200000000000
9.00000000000000000000,0.00003158840000000000
9.00000000000000000000,0.00003519110000000000
9.00000000000000000000,0.00003452590000000000
9.00000000000000000000,0.00003275910000000000
9.00000000000000000000,0.00003419500000000000
9.00000000000000000000,0.00003701710000000000
9.00000000000000000000,0.00003959660000000000
9.00000000000000000000,0.00004313190000000000
9.00000000000000000000,0.00004780440000000000
9.00000000000000000000,0.00005285570000000000
9.00000000000000000000,0.00005701490000000000
10.00000000000000000000,0.00005892160000000000
10.00000000000000000000,0.00005825950000000000
10.00000000000000000000,0.00005602110000000000
10.00000000000000000000,0.00005118430000000000
10.00000000000000000000,0.00004490800000000000
10.00000000000000000000,0.00004079970000000000
10.00000000000000000000,0.00004005910000000000
10.00000000000000000000,0.00004005330000000000
10.00000000000000000000,0.00004218960000000000
10.00000000000000000000,0.00004284240000000000
10.00000000000000000000,0.00004039670000000000
10.00000000000000000000,0.00004183030000000000
10.00000000000000000000,0.00004578920000000000
10.00000000000000000000,0.00004622220000000000
10.00000000000000000000,0.00004677370000000000
10.00000000000000000000,0.00004852100000000000
10.00000000000000000000,0.00004754140000000000
10.00000000000000000000,0.00004345710000000000
10.00000000000000000000,0.00003968070000000000
10.00000000000000000000,0.00003789980000000000
11.00000000000000000000,0.00003704120000000000
11.00000000000000000000,0.00003807550000000000
11.00000000000000000000,0.00003895820000000000
11.00000000000000000000,0.00003918200000000000
11.00000000000000000000,0.00003880460000000000
11.00000000000000000000,0.00003886850000000000
11.00000000000000000000,0.00004019210000000000
11.00000000000000000000,0.00004378840000000000
11.00000000000000000000,0.00004818320000000000
11.00000000000000000000,0.00005038550000000000
11.00000000000000000000,0.00004899030000000000
11.00000000000000000000,0.00004430220000000000
11.00000000000000000000,0.00004291520000000000
11.00000000000000000000,0.00004620760000000000
11.00000000000000000000,0.00004641780000000000
11.00000000000000000000,0.00004480360000000000
11.00000000000000000000,0.00004516350000000000
11.00000000000000000000,0.00004925880000000000
11.00000000000000000000,0.00005273950000000000
11.00000000000000000000,0.00005100080000000000
12.00000000000000000000,0.00004845110000000000
12.00000000000000000000,0.00004716570000000000
12.00000000000000000000,0.00004767450000000000
12.00000000000000000000,0.00004820270000000000
12.00000000000000000000,0.00004795700000000000
12.00000000000000000000,0.00004659280000000000
12.00000000000000000000,0.00004482990000000000
12.00000000000000000000,0.00004386780000000000
12.00000000000000000000,0.00004216300000000000
12.00000000000000000000,0.00003942930000000000
12.00000000000000000000,0.00003816830000000000
12.00000000000000000000,0.00003752850000000000
12.00000000000000000000,0.00003357050000000000
12.00000000000000000000,0.00002688160000000000
12.00000000000000000000,0.00002461020000000000
12.00000000000000000000,0.00002709100000000000
12.00000000000000000000,0.00002607970000000000
12.00000000000000000000,0.00002361490000000000
12.00000000000000000000,0.00002689270000000000
12.00000000000000000000,0.00003544690000000000
13.00000000000000000000,0.00004198620000000000
13.00000000000000000000,0.00004144900000000000
13.00000000000000000000,0.00003541700000000000
13.00000000000000000000,0.00002811080000000000
13.00000000000000000000,0.00002483240000000000
13.00000000000000000000,0.00002723940000000000
13.00000000000000000000,0.00003204980000000000
13.00000000000000000000,0.00003219290000000000
13.00000000000000000000,0.00003089550000000000
13.00000000000000000000,0.00003147930000000000
13.00000000000000000000,0.00003242380000000000
13.00000000000000000000,0.00003543480000000000
13.00000000000000000000,0.00003986040000000000
13.00000000000000000000,0.00004802510000000000
13.00000000000000000000,0.00005566480000000000
13.00000000000000000000,0.00005707910000000000
13.00000000000000000000,0.00005301580000000000
13.00000000000000000000,0.00004909990000000000
13.00000000000000000000,0.00004722540000000000
13.00000000000000000000,0.00004418270000000000
14.00000000000000000000,0.00003978510000000000
14.00000000000000000000,0.00003605610000000000
14.00000000000000000000,0.00003327420000000000
14.00000000000000000000,0.00003140250000000000
14.00000000000000000000,0.00003118130000000000
14.00000000000000000000,0.00003105260000000000
14.00000000000000000000,0.00003048700000000000
14.00000000000000000000,0.00003329470000000000
14.00000000000000000000,0.00003757590000000000
14.00000000000000000000,0.00003855380000000000
14.00000000000000000000,0.00003646820000000000
14.00000000000000000000,0.00003229810000000000
14.00000000000000000000,0.00003138310000000000
14.00000000000000000000,0.00003432630000000000
14.00000000000000000000,0.00003741870000000000
14.00000000000000000000,0.00003722770000000000
14.00000000000000000000,0.00003561070000000000
14.00000000000000000000,0.00003693010000000000
14.00000000000000000000,0.00003944070000000000
14.00000000000000000000,0.00003917770000000000
15.00000000000000000000,0.00003671520000000000
15.00000000000000000000,0.00003427610000000000
15.00000000000000000000,0.00003199980000000000
15.00000000000000000000,0.00003256390000000000
15.00000000000000000000,0.00003419970000000000
15.00000000000000000000,0.00003412260000000000
15.00000000000000000000,0.00003340890000000000
15.00000000000000000000,0.00003303880000000000
15.00000000000000000000,0.00003162020000000000
15.00000000000000000000,0.00003054070000000000
15.00000000000000000000,0.00003145730000000000
15.00000000000000000000,0.00003243230000000000
15.00000000000000000000,0.00003146040000000000
15.00000000000000000000,0.00003192230000000000
15.00000000000000000000,0.00003978140000000000
15.00000000000000000000,0.00004669200000000000
15.00000000000000000000,0.00004543030000000000
15.00000000000000000000,0.00004207860000000000
15.00000000000000000000,0.00004070790000000000
15.00000000000000000000,0.00003916180000000000
16.00000000000000000000,0.00003937750000000000
16.00000000000000000000,0.00004315270000000000
16.00000000000000000000,0.00004522770000000000
16.00000000000000000000,0.00004500410000000000
16.00000000000000000000,0.00004403280000000000
16.00000000000000000000,0.00004307820000000000
16.00000000000000000000,0.00004211130000000000
16.00000000000000000000,0.00004431930000000000
16.00000000000000000000,0.00004807820000000000
16.00000000000000000000,0.00004858700000000000
16.00000000000000000000,0.00004757260000000000
16.00000000000000000000,0.00004665860000000000
16.00000000000000000000,0.00004789650000000000
16.00000000000000000000,0.00004986260000000000
16.00000000000000000000,0.00005012700000000000
16.00000000000000000000,0.00004847780000000000
16.00000000000000000000,0.00004548480000000000
16.00000000000000000000,0.00004194090000000000
16.00000000000000000000,0.00003900830000000000
16.00000000000000000000,0.00003630930000000000
17.00000000000000000000,0.00003640880000000000
17.00000000000000000000,0.00003896560000000000
17.00000000000000000000,0.00004200000000000000
17.00000000000000000000,0.00004149060000000000
17.00000000000000000000,0.00003820330000000000
17.00000000000000000000,0.00003945680000000000
17.00000000000000000000,0.00004608770000000000
17.00000000000000000000,0.00005489080000000000
17.00000000000000000000,0.00005657810000000000
17.00000000000000000000,0.00005141800000000000
17.00000000000000000000,0.00004845700000000000
17.00000000000000000000,0.00004848860000000000
17.00000000000000000000,0.00004638420000000000
17.00000000000000000000,0.00003998600000000000
17.00000000000000000000,0.00003383270000000000
17.00000000000000000000,0.00003234740000000000
17.00000000000000000000,0.00003537110000000000
17.00000000000000000000,0.00004008070000000000
17.00000000000000000000,0.00004231280000000000
17.00000000000000000000,0.00003842550000000000
18.00000000000000000000,0.00002911530000000000
18.00000000000000000000,0.00002367650000000000
18.00000000000000000000,0.00002626450000000000
18.00000000000000000000,0.00003227680000000000
18.00000000000000000000,0.00003816200000000000
18.00000000000000000000,0.00004098930000000000
18.00000000000000000000,0.00003849480000000000
18.00000000000000000000,0.00003653050000000000
18.00000000000000000000,0.00004007720000000000
18.00000000000000000000,0.00004193760000000000
18.00000000000000000000,0.00004073740000000000
18.00000000000000000000,0.00004167040000000000
18.00000000000000000000,0.00004469170000000000
18.00000000000000000000,0.00004351610000000000
18.00000000000000000000,0.00003846510000000000
18.00000000000000000000,0.00003720780000000000
18.00000000000000000000,0.00003953220000000000
18.00000000000000000000,0.00004401590000000000
18.00000000000000000000,0.00004726940000000000
18.00000000000000000000,0.00004789000000000000
19.00000000000000000000,0.00004771250000000000
19.00000000000000000000,0.00004660470000000000
19.00000000000000000000,0.00004432710000000000
19.00000000000000000000,0.00004101190000000000
19.00000000000000000000,0.00003846750000000000
19.00000000000000000000,0.00003634790000000000
19.00000000000000000000,0.00003714330000000000
19.00000000000000000000,0.00004154240000000000
19.00000000000000000000,0.00004425200000000000
19.00000000000000000000,0.00004094980000000000
19.00000000000000000000,0.00003477100000000000
19.00000000000000000000,0.00003144330000000000
19.00000000000000000000,0.00003325010000000000
19.00000000000000000000,0.00003581640000000000
19.00000000000000000000,0.00003795050000000000
19.00000000000000000000,0.00004082980000000000
19.00000000000000000000,0.00004016950000000000
19.00000000000000000000,0.00003838710000000000
19.00000000000000000000,0.00003640580000000000
19.00000000000000000000,0.00003413210000000000
20.00000000000000000000,0.00003392130000000000
20.00000000000000000000,0.00003081770000000000
20.00000000000000000000,0.00002787080000000000
20.00000000000000000000,0.00003009660000000000
20.00000000000000000000,0.00003064120000000000
20.00000000000000000000,0.00002831400000000000
20.00000000000000000000,0.00002629360000000000
20.00000000000000000000,0.00002319940000000000
20.00000000000000000000,0.00001882370000000000
20.00000000000000000000,0.00001799920000000000
20.00000000000000000000,0.00002223470000000000
20.00000000000000000000,0.00002726100000000000
20.00000000000000000000,0.00003035310000000000
20.00000000000000000000,0.00003135140000000000
20.00000000000000000000,0.00003027450000000000
20.00000000000000000000,0.00002872000000000000
20.00000000000000000000,0.00002958040000000000
20.00000000000000000000,0.00003158200000000000
20.00000000000000000000,0.00003307690000000000
20.00000000000000000000,0.00003326570000000000
21.00000000000000000000,0.00003236280000000000
21.00000000000000000000,0.00003590420000000000
21.00000000000000000000,0.00004333690000000000
21.00000000000000000000,0.00004774540000000000
21.00000000000000000000,0.00004914240000000000
21.00000000000000000000,0.00005263770000000000
21.00000000000000000000,0.00005835020000000000
21.00000000000000000000,0.00006314559999999999
21.00000000000000000000,0.00006615780000000000
21.00000000000000000000,0.00006502830000000000
21.00000000000000000000,0.00006260060000000001
21.00000000000000000000,0.00006138340000000001
21.00000000000000000000,0.00005946520000000000
21.00000000000000000000,0.00005730380000000000
21.00000000000000000000,0.00005388470000000000
21.00000000000000000000,0.00004875020000000000
21.00000000000000000000,0.00004384080000000000
21.00000000000000000000,0.00004300110000000000
21.00000000000000000000,0.00004485590000000000
21.00000000000000000000,0.00004584150000000000
22.00000000000000000000,0.00004420360000000000
22.00000000000000000000,0.00004172200000000000
22.00000000000000000000,0.00004129060000000000
22.00000000000000000000,0.00004243340000000000
22.00000000000000000000,0.00004256450000000000
22.00000000000000000000,0.00004140310000000000
22.00000000000000000000,0.00003894260000000000
22.00000000000000000000,0.00003521570000000000
22.00000000000000000000,0.00003291150000000000
22.00000000000000000000,0.00003294060000000000
22.00000000000000000000,0.00003538410000000000
22.00000000000000000000,0.00004110710000000000
22.00000000000000000000,0.00004685610000000000
22.00000000000000000000,0.00004379410000000000
22.00000000000000000000,0.00003917800000000000
22.00000000000000000000,0.00003372210000000000
22.00000000000000000000,0.00002895640000000000
22.00000000000000000000,0.00003278810000000000
22.00000000000000000000,0.00003502920000000000
22.00000000000000000000,0.00003298010000000000
23.00000000000000000000,0.00003436110000000000
23.00000000000000000000,0.00003885660000000000
23.00000000000000000000,0.00003941450000000000
23.00000000000000000000,0.00003742160000000000
23.00000000000000000000,0.00003804920000000000
23.00000000000000000000,0.00004131090000000000
23.00000000000000000000,0.00004176050000000000
23.00000000000000000000,0.00003788980000000000
23.00000000000000000000,0.00003168050000000000
23.00000000000000000000,0.00003016860000000000
23.00000000000000000000,0.00003577210000000000
23.00000000000000000000,0.00004149540000000000
23.00000000000000000000,0.00004163430000000000
23.00000000000000000000,0.00003673070000000000
23.00000000000000000000,0.00003246710000000000
23.00000000000000000000,0.00003481300000000000
23.00000000000000000000,0.00003876020000000000
23.00000000000000000000,0.00004063670000000000
23.00000000000000000000,0.00004457390000000000
23.00000000000000000000,0.00004908060000000000
24.00000000000000000000,0.00004942890000000000
24.00000000000000000000,0.00004769850000000000
24.00000000000000000000,0.00004644770000000000
24.00000000000000000000,0.00004168520000000000
24.00000000000000000000,0.00003919940000000000
24.00000000000000000000,0.00003918680000000000
24.00000000000000000000,0.00004366980000000000
24.00000000000000000000,0.00005069830000000000
24.00000000000000000000,0.00005576330000000000
24.00000000000000000000,0.00005411020000000000
24.00000000000000000000,0.00004825080000000000
24.00000000000000000000,0.00004596290000000000
24.00000000000000000000,0.00004698460000000000
24.00000000000000000000,0.00004560350000000000
24.00000000000000000000,0.00004137790000000000
24.00000000000000000000,0.00003849300000000000
24.00000000000000000000,0.00003752550000000000
24.00000000000000000000,0.00003837060000000000
24.00000000000000000000,0.00003881640000000000
24.00000000000000000000,0.00004036850000000000
25.00000000000000000000,0.00004132820000000000
25.00000000000000000000,0.00003887190000000000
25.00000000000000000000,0.00003586810000000000
25.00000000000000000000,0.00003563600000000000
25.00000000000000000000,0.00003681300000000000
25.00000000000000000000,0.00004186980000000000
25.00000000000000000000,0.00004532050000000000
25.00000000000000000000,0.00004418120000000000
25.00000000000000000000,0.00004192020000000000
25.00000000000000000000,0.00003999970000000000
25.00000000000000000000,0.00003660460000000000
25.00000000000000000000,0.00003856440000000000
25.00000000000000000000,0.00004289050000000000
25.00000000000000000000,0.00004356770000000000
25.00000000000000000000,0.00004470010000000000
25.00000000000000000000,0.00004559420000000000
25.00000000000000000000,0.00004636750000000000
25.00000000000000000000,0.00004628310000000000
25.00000000000000000000,0.00004456380000000000
25.00000000000000000000,0.00004077480000000000
26.00000000000000000000,0.00003741430000000000
26.00000000000000000000,0.00003621020000000000
26.00000000000000000000,0.00003668550000000000
26.00000000000000000000,0.00003638960000000000
26.00000000000000000000,0.00003587020000000000
26.00000000000000000000,0.00003675580000000000
26.00000000000000000000,0.00003625300000000000
26.00000000000000000000,0.00003175130000000000
26.00000000000000000000,0.00002879680000000000
26.00000000000000000000,0.00003185820000000000
26.00000000000000000000,0.00003686070000000000
26.00000000000000000000,0.00003838310000000000
26.00000000000000000000,0.00003695940000000000
26.00000000000000000000,0.00003534510000000000
26.00000000000000000000,0.00003654010000000000
26.00000000000000000000,0.00003930560000000000
26.00000000000000000000,0.00004171440000000000
26.00000000000000000000,0.00004236150000000000
26.00000000000000000000,0.00004048220000000000
26.00000000000000000000,0.00003602590000000000
27.00000000000000000000,0.00002864310000000000
27.00000000000000000000,0.00002347310000000000
27.00000000000000000000,0.00002441770000000000
27.00000000000000000000,0.00002967760000000000
27.00000000000000000000,0.00003546550000000000
27.00000000000000000000,0.00003958560000000000
27.00000000000000000000,0.00004330720000000000
27.00000000000000000000,0.00004811000000000000
27.00000000000000000000,0.00005241840000000000
27.00000000000000000000,0.00005288800000000000
27.00000000000000000000,0.00005123130000000000
27.00000000000000000000,0.00005145220000000000
27.00000000000000000000,0.00005100680000000000
27.00000000000000000000,0.00004866420000000000
27.00000000000000000000,0.00004614830000000000
27.00000000000000000000,0.00004805610000000000
27.00000000000000000000,0.00005495180000000000
27.00000000000000000000,0.00005921900000000000
27.00000000000000000000,0.00006028070000000000
27.00000000000000000000,0.00005701160000000000
28.00000000000000000000,0.00005048800000000000
28.00000000000000000000,0.00004636300000000000
28.00000000000000000000,0.00004597780000000000
28.00000000000000000000,0.00004653370000000000
28.00000000000000000000,0.00004456130000000000
28.00000000000000000000,0.00004311100000000000
28.00000000000000000000,0.00004363630000000000
28.00000000000000000000,0.00004618940000000000
28.00000000000000000000,0.00004711720000000000
28.00000000000000000000,0.00004731070000000000
28.00000000000000000000,0.00004671220000000000
28.00000000000000000000,0.00004545340000000000
28.00000000000000000000,0.00004601280000000000
28.00000000000000000000,0.00004570810000000000
28.00000000000000000000,0.00004300620000000000
28.00000000000000000000,0.00004109420000000000
28.00000000000000000000,0.00004462890000000000
28.00000000000000000000,0.00004876450000000000
28.00000000000000000000,0.00004819740000000000
28.00000000000000000000,0.00004446600000000000
29.00000000000000000000,0.00003986390000000000
29.00000000000000000000,0.00003420230000000000
29.00000000000000000000,0.00002991070000000000
29.00000000000000000000,0.00003059820000000000
29.00000000000000000000,0.00003592220000000000
29.00000000000000000000,0.00004013500000000000
29.00000000000000000000,0.00003698520000000000
29.00000000000000000000,0.00002894580000000000
29.00000000000000000000,0.00002750030000000000
29.00000000000000000000,0.00003459970000000000
29.00000000000000000000,0.00003916140000000000
29.00000000000000000000,0.00003600820000000000
29.00000000000000000000,0.00003115540000000000
29.00000000000000000000,0.00003033330000000000
29.00000000000000000000,0.00003398360000000000
29.00000000000000000000,0.00003591480000000000
29.00000000000000000000,0.00003368960000000000
29.00000000000000000000,0.00002828120000000000
29.00000000000000000000,0.00002364990000000000
29.00000000000000000000,0.00002532140000000000
30.00000000000000000000,0.00003212190000000000
30.00000000000000000000,0.00003821170000000000
30.00000000000000000000,0.00003725660000000000
30.00000000000000000000,0.00003282420000000000
30.00000000000000000000,0.00003249650000000000
30.00000000000000000000,0.00003791000000000000
30.00000000000000000000,0.00004135020000000000
30.00000000000000000000,0.00003840660000000000
30.00000000000000000000,0.00003375960000000000
30.00000000000000000000,0.00003117630000000000
30.00000000000000000000,0.00003063590000000000
30.00000000000000000000,0.00003204740000000000
30.00000000000000000000,0.00003485770000000000
30.00000000000000000000,0.00003740220000000000
30.00000000000000000000,0.00004002120000000000
30.00000000000000000000,0.00003833620000000000
30.00000000000000000000,0.00003351210000000000
30.00000000000000000000,0.00003204460000000000
30.00000000000000000000,0.00003346890000000000
30.00000000000000000000,0.00003746240000000000
31.00000000000000000000,0.00003855020000000000
31.00000000000000000000,0.00003719400000000000
31.00000000000000000000,0.00003587030000000000
31.00000000000000000000,0.00003435910000000000
31.00000000000000000000,0.00003392380000000000
31.00000000000000000000,0.00003710870000000000
31.00000000000000000000,0.00004100070000000000
31.00000000000000000000,0.00004206790000000000
31.00000000000000000000,0.00004006570000000000
31.00000000000000000000,0.00003553590000000000
31.00000000000000000000,0.00003174250000000000
31.00000000000000000000,0.00003188570000000000
31.00000000000000000000,0.00003637820000000000
31.00000000000000000000,0.00003895800000000000
31.00000000000000000000,0.00003806650000000000
31.00000000000000000000,0.00003422550000000000
31.00000000000000000000,0.00003203740000000000
31.00000000000000000000,0.00003564690000000000
31.00000000000000000000,0.00004286230000000000
31.00000000000000000000,0.00004387540000000000
32.00000000000000000000,0.00004026530000000000
32.00000000000000000000,0.00003937820000000000
32.00000000000000000000,0.00003718960000000000
32.00000000000000000000,0.00003364730000000000
32.00000000000000000000,0.00002971960000000000
32.00000000000000000000,0.00002969250000000000
32.00000000000000000000,0.00003217650000000000
32.00000000000000000000,0.00003174390000000000
32.00000000000000000000,0.00003264160000000000
32.00000000000000000000,0.00003434070000000000
32.00000000000000000000,0.00003382830000000000
32.00000000000000000000,0.00003420630000000000
32.00000000000000000000,0.00003975820000000000
32.00000000000000000000,0.00004605870000000000
32.00000000000000000000,0.00004820040000000000
32.00000000000000000000,0.00004697480000000000
32.00000000000000000000,0.00004807740000000000
32.00000000000000000000,0.00005132010000000000
32.00000000000000000000,0.00005289820000000000
32.00000000000000000000,0.00005207260000000000
33.00000000000000000000,0.00005108330000000000
33.00000000000000000000,0.00005176810000000000
33.00000000000000000000,0.00005135720000000000
33.00000000000000000000,0.00005097880000000000
33.00000000000000000000,0.00005191330000000000
33.00000000000000000000,0.00005038010000000000
33.00000000000000000000,0.00004372480000000000
33.00000000000000000000,0.00004163640000000000
33.00000000000000000000,0.00004627220000000000
33.00000000000000000000,0.00004932290000000000
33.00000000000000000000,0.00004944600000000000
33.00000000000000000000,0.00004575800000000000
33.00000000000000000000,0.00004103400000000000
33.00000000000000000000,0.00004175170000000000
33.00000000000000000000,0.00004544180000000000
33.00000000000000000000,0.00004722150000000000
33.00000000000000000000,0.00004574840000000000
33.00000000000000000000,0.00004130310000000000
33.00000000000000000000,0.00003544040000000000
33.00000000000000000000,0.00003369850000000000
34.00000000000000000000,0.00003659800000000000
34.00000000000000000000,0.00003661400000000000
34.00000000000000000000,0.00003081660000000000
34.00000000000000000000,0.00002476890000000000
34.00000000000000000000,0.00002199200000000000
34.00000000000000000000,0.00002292600000000000
34.00000000000000000000,0.00002375870000000000
34.00000000000000000000,0.00002426130000000000
34.00000000000000000000,0.00002713990000000000
34.00000000000000000000,0.00003050180000000000
34.00000000000000000000,0.00003562780000000000
34.00000000000000000000,0.00004374200000000000
34.00000000000000000000,0.00005060170000000000
34.00000000000000000000,0.00005128150000000000
34.00000000000000000000,0.00004736030000000000
34.00000000000000000000,0.00004637200000000000
34.00000000000000000000,0.00004742430000000000
34.00000000000000000000,0.00004446860000000000
34.00000000000000000000,0.00004085940000000000
34.00000000000000000000,0.00004372030000000000
35.00000000000000000000,0.00004891120000000000
35.00000000000000000000,0.00004731520000000000
35.00000000000000000000,0.00004241190000000000
35.00000000000000000000,0.00003783360000000000
35.00000000000000000000,0.00003386550000000000
35.00000000000000000000,0.00003004660000000000
35.00000000000000000000,0.00003087570000000000
35.00000000000000000000,0.00003518380000000000
35.00000000000000000000,0.00003801120000000000
35.00000000000000000000,0.00003873580000000000
35.00000000000000000000,0.00003971610000000000
35.00000000000000000000,0.00004160880000000000
35.00000000000000000000,0.00004311710000000000
35.00000000000000000000,0.00004486440000000000
35.00000000000000000000,0.00004532060000000000
35.00000000000000000000,0.00004319200000000000
35.00000000000000000000,0.00003966530000000000
35.00000000000000000000,0.00003698690000000000
35.00000000000000000000,0.00003663290000000000
35.00000000000000000000,0.00003840280000000000
36.00000000000000000000,0.00004102060000000000
36.00000000000000000000,0.00004482320000000000
36.00000000000000000000,0.00004521070000000000
36.00000000000000000000,0.00004301740000000000
36.00000000000000000000,0.00004354720000000000
36.00000000000000000000,0.00004391580000000000
36.00000000000000000000,0.00004142040000000000
36.00000000000000000000,0.00003994030000000000
36.00000000000000000000,0.00004066190000000000
36.00000000000000000000,0.00004312450000000000
36.00000000000000000000,0.00004375200000000000
36.00000000000000000000,0.00004092030000000000
36.00000000000000000000,0.00003801940000000000
36.00000000000000000000,0.00003966000000000000
36.00000000000000000000,0.00004355880000000000
36.00000000000000000000,0.00004593940000000000
36.00000000000000000000,0.00004862830000000000
36.00000000000000000000,0.00004910250000000000
36.00000000000000000000,0.00004651260000000000
36.00000000000000000000,0.00004453310000000000
37.00000000000000000000,0.00004644280000000000
37.00000000000000000000,0.00004918610000000000
37.00000000000000000000,0.00004785120000000000
37.00000000000000000000,0.00004390500000000000
37.00000000000000000000,0.00004053830000000000
37.00000000000000000000,0.00003905080000000000
37.00000000000000000000,0.00004141370000000000
37.00000000000000000000,0.00004130890000000000
37.00000000000000000000,0.00003665720000000000
37.00000000000000000000,0.00003378310000000000
37.00000000000000000000,0.00003226720000000000
37.00000000000000000000,0.00003126380000000000
37.00000000000000000000,0.00003222550000000000
37.00000000000000000000,0.00003216230000000000
37.00000000000000000000,0.00003092250000000000
37.00000000000000000000,0.00003016720000000000
37.00000000000000000000,0.00003062940000000000
37.00000000000000000000,0.00003411070000000000
37.00000000000000000000,0.00003693500000000000
37.00000000000000000000,0.00003601290000000000
38.00000000000000000000,0.00003242660000000000
38.00000000000000000000,0.00002912350000000000
38.00000000000000000000,0.00002877800000000000
38.00000000000000000000,0.00002977940000000000
38.00000000000000000000,0.00002894170000000000
38.00000000000000000000,0.00002801820000000000
38.00000000000000000000,0.00003048070000000000
38.00000000000000000000,0.00003396320000000000
38.00000000000000000000,0.00003447060000000000
38.00000000000000000000,0.00003392350000000000
38.00000000000000000000,0.00003380390000000000
38.00000000000000000000,0.00003341220000000000
38.00000000000000000000,0.00003416910000000000
38.00000000000000000000,0.00003691730000000000
38.00000000000000000000,0.00003860460000000000
38.00000000000000000000,0.00003910540000000000
38.00000000000000000000,0.00004204150000000000
38.00000000000000000000,0.00004290010000000000
38.00000000000000000000,0.00004117420000000000
38.00000000000000000000,0.00004029710000000000
39.00000000000000000000,0.00003757480000000000
39.00000000000000000000,0.00003388110000000000
39.00000000000000000000,0.00003312410000000000
39.00000000000000000000,0.00003587620000000000
39.00000000000000000000,0.00004097790000000000
39.00000000000000000000,0.00004596840000000000
39.00000000000000000000,0.00004734060000000000
39.00000000000000000000,0.00004706110000000000
39.00000000000000000000,0.00004843580000000000
39.00000000000000000000,0.00005277740000000000
39.00000000000000000000,0.00005478130000000000
39.00000000000000000000,0.00005106330000000000
39.00000000000000000000,0.00004644100000000000
39.00000000000000000000,0.00004588540000000000
39.00000000000000000000,0.00004775650000000000
39.00000000000000000000,0.00004976840000000000
39.00000000000000000000,0.00005071200000000000
39.00000000000000000000,0.00004583990000000000
39.00000000000000000000,0.00003851360000000000
39.00000000000000000000,0.00003591000000000000
40.00000000000000000000,0.00003573440000000000
40.00000000000000000000,0.00003563090000000000
40.00000000000000000000,0.00003787480000000000
40.00000000000000000000,0.00003842640000000000
40.00000000000000000000,0.00003916600000000000
40.00000000000000000000,0.00003910200000000000
40.00000000000000000000,0.00003454200000000000
40.00000000000000000000,0.00003354600000000000
40.00000000000000000000,0.00003975780000000000
40.00000000000000000000,0.00004533800000000000
40.00000000000000000000,0.00004315490000000000
40.00000000000000000000,0.00003881780000000000
40.00000000000000000000,0.00003827910000000000
40.00000000000000000000,0.00004075270000000000
40.00000000000000000000,0.00004321660000000000
40.00000000000000000000,0.00004329650000000000
40.00000000000000000000,0.00004382170000000000
40.00000000000000000000,0.00004568110000000000
40.00000000000000000000,0.00004543930000000000
40.00000000000000000000,0.00004232350000000000
41.00000000000000000000,0.00003976100000000000
41.00000000000000000000,0.00003907570000000000
41.00000000000000000000,0.00003839310000000000
41.00000000000000000000,0.00003722310000000000
41.00000000000000000000,0.00003606530000000000
41.00000000000000000000,0.00003367650000000000
41.00000000000000000000,0.00003367460000000000
41.00000000000000000000,0.00003787700000000000
41.00000000000000000000,0.00003841660000000000
41.00000000000000000000,0.00003555030000000000
41.00000000000000000000,0.00003518760000000000
41.00000000000000000000,0.00003581680000000000
41.00000000000000000000,0.00003790530000000000
41.00000000000000000000,0.00004023400000000000
41.00000000000000000000,0.00004283790000000000
41.00000000000000000000,0.00004615150000000000
41.00000000000000000000,0.00004629560000000000
41.00000000000000000000,0.00004400760000000000
41.00000000000000000000,0.00003995720000000000
41.00000000000000000000,0.00003602620000000000
42.00000000000000000000,0.00003480630000000000
42.00000000000000000000,0.00003495210000000000
42.00000000000000000000,0.00003396240000000000
42.00000000000000000000,0.00003538500000000000
42.00000000000000000000,0.00003866240000000000
42.00000000000000000000,0.00003586020000000000
42.00000000000000000000,0.00002670740000000000
42.00000000000000000000,0.00002110440000000000
42.00000000000000000000,0.00002017970000000000
42.00000000000000000000,0.00001612040000000000
42.00000000000000000000,0.00000796912000000000
42.00000000000000000000,-0.00000049639400000000
42.00000000000000000000,-0.00000601332000000000
42.00000000000000000000,-0.00000746978000000000
42.00000000000000000000,-0.00000633548000000000
42.00000000000000000000,-0.00000672234000000000
42.00000000000000000000,-0.00000986037000000000
42.00000000000000000000,-0.00000956386000000000
42.00000000000000000000,-0.00000565563000000000
42.00000000000000000000,0.00000171914000000000
43.00000000000000000000,0.00001437670000000000
43.00000000000000000000,0.00003314270000000000
43.00000000000000000000,0.00006511139999999999
43.00000000000000000000,0.00010403900000000000
43.00000000000000000000,0.00013681199999999999
43.00000000000000000000,0.00015939900000000001
43.00000000000000000000,0.00017370499999999999
43.00000000000000000000,0.00017900600000000000
43.00000000000000000000,0.00017670199999999999
43.00000000000000000000,0.00016677500000000000
43.00000000000000000000,0.00014866300000000000
43.00000000000000000000,0.00012563900000000001
43.00000000000000000000,0.00010096200000000000
43.00000000000000000000,0.00007931610000000000
43.00000000000000000000,0.00006438940000000000
43.00000000000000000000,0.00005428230000000000
43.00000000000000000000,0.00004636280000000000
43.00000000000000000000,0.00003980450000000000
43.00000000000000000000,0.00003534900000000000
43.00000000000000000000,0.00003444190000000000
44.00000000000000000000,0.00003425770000000000
44.00000000000000000000,0.00003268760000000000
44.00000000000000000000,0.00002679230000000000
44.00000000000000000000,0.00001738260000000000
44.00000000000000000000,0.00001060160000000000
44.00000000000000000000,0.00001027710000000000
44.00000000000000000000,0.00001221500000000000
44.00000000000000000000,0.00001428900000000000
44.00000000000000000000,0.00001980500000000000
44.00000000000000000000,0.00002490830000000000
44.00000000000000000000,0.00002336770000000000
44.00000000000000000000,0.00002272730000000000
44.00000000000000000000,0.00002365080000000000
44.00000000000000000000,0.00001998690000000000
44.00000000000000000000,0.00001453230000000000
44.00000000000000000000,0.00001521080000000000
44.00000000000000000000,0.00002027060000000000
44.00000000000000000000,0.00002175540000000000
44.00000000000000000000,0.00002213570000000000
44.00000000000000000000,0.00002511980000000000
45.00000000000000000000,0.00002866120000000000
45.00000000000000000000,0.00003082270000000000
45.00000000000000000000,0.00003299000000000000
45.00000000000000000000,0.00003414220000000000
45.00000000000000000000,0.00003456350000000000
45.00000000000000000000,0.00003329960000000000
45.00000000000000000000,0.00003490920000000000
45.00000000000000000000,0.00003993330000000000
45.00000000000000000000,0.00004384020000000000
45.00000000000000000000,0.00004495730000000000
45.00000000000000000000,0.00003975070000000000
45.00000000000000000000,0.00003381160000000000
45.00000000000000000000,0.00003415510000000000
45.00000000000000000000,0.00003725510000000000
45.00000000000000000000,0.00003636620000000000
45.00000000000000000000,0.00003555470000000000
45.00000000000000000000,0.00003964470000000000
45.00000000000000000000,0.00004215550000000000
45.00000000000000000000,0.00003941760000000000
45.00000000000000000000,0.00003567190000000000
46.00000000000000000000,0.00003649020000000000
46.00000000000000000000,0.00003888910000000000
46.00000000000000000000,0.00003988220000000000
46.00000000000000000000,0.00003921790000000000
46.00000000000000000000,0.00003900270000000000
46.00000000000000000000,0.00004015090000000000
46.00000000000000000000,0.00003961690000000000
46.00000000000000000000,0.00003760280000000000
46.00000000000000000000,0.00003660820000000000
46.00000000000000000000,0.00003710810000000000
46.00000000000000000000,0.00003657400000000000
46.00000000000000000000,0.00003528610000000000
46.00000000000000000000,0.00003423880000000000
46.00000000000000000000,0.00003276460000000000
46.00000000000000000000,0.00003255750000000000
46.00000000000000000000,0.00003751400000000000
46.00000000000000000000,0.00004269170000000000
46.00000000000000000000,0.00004232260000000000
46.00000000000000000000,0.00004121230000000000
46.00000000000000000000,0.00004140440000000000
47.00000000000000000000,0.00004119740000000000
47.00000000000000000000,0.00003899900000000000
47.00000000000000000000,0.00003356100000000000
47.00000000000000000000,0.00003159140000000000
47.00000000000000000000,0.00003416620000000000
47.00000000000000000000,0.00003581310000000000
47.00000000000000000000,0.00003471930000000000
47.00000000000000000000,0.00003411040000000000
47.00000000000000000000,0.00003292630000000000
47.00000000000000000000,0.00003107690000000000
47.00000000000000000000,0.00003287080000000000
47.00000000000000000000,0.00003659120000000000
47.00000000000000000000,0.00003928000000000000
47.00000000000000000000,0.00003952890000000000
47.00000000000000000000,0.00003838710000000000
47.00000000000000000000,0.00003865110000000000
47.00000000000000000000,0.00003718780000000000
47.00000000000000000000,0.00002977670000000000
47.00000000000000000000,0.00002139390000000000
47.00000000000000000000,0.00001632220000000000
48.00000000000000000000,0.00001593420000000000
48.00000000000000000000,0.00001800260000000000
48.00000000000000000000,0.00002067890000000000
48.00000000000000000000,0.00002130750000000000
48.00000000000000000000,0.00001667530000000000
48.00000000000000000000,0.00000580575000000000
48.00000000000000000000,-0.00000338025000000000
48.00000000000000000000,-0.00000581611000000000
48.00000000000000000000,-0.00001055490000000000
48.00000000000000000000,-0.00001688650000000000
48.00000000000000000000,-0.00001890580000000000
48.00000000000000000000,-0.00001637040000000000
48.00000000000000000000,-0.00000838806000000000
48.00000000000000000000,0.00000923044000000000
48.00000000000000000000,0.00003608820000000000
48.00000000000000000000,0.00006804290000000001
48.00000000000000000000,0.00010153800000000000
48.00000000000000000000,0.00013373000000000001
48.00000000000000000000,0.00015765300000000000
48.00000000000000000000,0.00016610600000000001
49.00000000000000000000,0.00015762099999999999
49.00000000000000000000,0.00013852299999999999
49.00000000000000000000,0.00011585700000000000
49.00000000000000000000,0.00009222840000000000
49.00000000000000000000,0.00007277990000000000
49.00000000000000000000,0.00005978870000000000
49.00000000000000000000,0.00005006060000000000
49.00000000000000000000,0.00004135870000000000
49.00000000000000000000,0.00003571250000000000
49.00000000000000000000,0.00003388450000000000
49.00000000000000000000,0.00003332380000000000
49.00000000000000000000,0.00003203680000000000
49.00000000000000000000,0.00003185780000000000
49.00000000000000000000,0.00003089400000000000
49.00000000000000000000,0.00002941530000000000
49.00000000000000000000,0.00002733130000000000
49.00000000000000000000,0.00002587410000000000
49.00000000000000000000,0.00002577420000000000
49.00000000000000000000,0.00002393900000000000
49.00000000000000000000,0.00002101720000000000
50.00000000000000000000,0.00001847160000000000
50.00000000000000000000,0.00001753240000000000
50.00000000000000000000,0.00001758540000000000
50.00000000000000000000,0.00001831490000000000
50.00000000000000000000,0.00001959560000000000
50.00000000000000000000,0.00002108120000000000
50.00000000000000000000,0.00002241250000000000
50.00000000000000000000,0.00002644860000000000
50.00000000000000000000,0.00003245390000000000
50.00000000000000000000,0.00003916760000000000
50.00000000000000000000,0.00004448890000000000
50.00000000000000000000,0.00004619770000000000
50.00000000000000000000,0.00004747160000000000
50.00000000000000000000,0.00004982170000000000
50.00000000000000000000,0.00005021930000000000
50.00000000000000000000,0.00004761470000000000
50.00000000000000000000,0.00004597800000000000
50.00000000000000000000,0.00004570810000000000
50.00000000000000000000,0.00004852770000000000
50.00000000000000000000,0.00005136370000000000
51.00000000000000000000,0.00004532920000000000
51.00000000000000000000,0.00003810560000000000
51.00000000000000000000,0.00003668830000000000
51.00000000000000000000,0.00003614680000000000
51.00000000000000000000,0.00003501300000000000
51.00000000000000000000,0.00003206580000000000
51.00000000000000000000,0.00002966550000000000
51.00000000000000000000,0.00002950030000000000
51.00000000000000000000,0.00002771090000000000
51.00000000000000000000,0.00002621900000000000
51.00000000000000000000,0.00002765940000000000
51.00000000000000000000,0.00002864260000000000
51.00000000000000000000,0.00002797380000000000
51.00000000000000000000,0.00002703040000000000
51.00000000000000000000,0.00002355300000000000
51.00000000000000000000,0.00001625600000000000
51.00000000000000000000,0.00001033250000000000
51.00000000000000000000,0.00000886184000000000
51.00000000000000000000,0.00000900326000000000
51.00000000000000000000,0.00001078030000000000
52.00000000000000000000,0.00001362310000000000
52.00000000000000000000,0.00001487820000000000
52.00000000000000000000,0.00001887010000000000
52.00000000000000000000,0.00003041130000000000
52.00000000000000000000,0.00004304240000000000
52.00000000000000000000,0.00005064430000000000
52.00000000000000000000,0.00005579470000000000
52.00000000000000000000,0.00005785800000000000
52.00000000000000000000,0.00006299940000000000
52.00000000000000000000,0.00007290390000000000
52.00000000000000000000,0.00008348030000000000
52.00000000000000000000,0.00009511950000000000
52.00000000000000000000,0.00010474000000000000
52.00000000000000000000,0.00011188900000000000
52.00000000000000000000,0.00011630500000000001
52.00000000000000000000,0.00011565500000000000
52.00000000000000000000,0.00010673300000000000
52.00000000000000000000,0.00009210490000000001
52.00000000000000000000,0.00007915240000000000
52.00000000000000000000,0.00007232770000000000
53.00000000000000000000,0.00006887660000000000
53.00000000000000000000,0.00006301309999999999
53.00000000000000000000,0.00005359890000000000
53.00000000000000000000,0.00004527450000000000
53.00000000000000000000,0.00003837440000000000
53.00000000000000000000,0.00002866080000000000
53.00000000000000000000,0.00001760520000000000
53.00000000000000000000,0.00000907048000000000
53.00000000000000000000,0.00000397987000000000
53.00000000000000000000,0.00000080212000000000
53.00000000000000000000,-0.00000114762000000000
53.00000000000000000000,0.00000131633000000000
53.00000000000000000000,0.00000583960000000000
53.00000000000000000000,0.00000918050000000000
53.00000000000000000000,0.00001329450000000000
53.00000000000000000000,0.00002022130000000000
53.00000000000000000000,0.00002829140000000000
53.00000000000000000000,0.00003464670000000000
53.00000000000000000000,0.00004068410000000000
53.00000000000000000000,0.00004268580000000000
54.00000000000000000000,0.00003915450000000000
54.00000000000000000000,0.00003391190000000000
54.00000000000000000000,0.00003232370000000000
54.00000000000000000000,0.00003061980000000000
54.00000000000000000000,0.00002548460000000000
54.00000000000000000000,0.00002321910000000000
54.00000000000000000000,0.00002463580000000000
54.00000000000000000000,0.00002592150000000000
54.00000000000000000000,0.00002475420000000000
54.00000000000000000000,0.00002501450000000000
54.00000000000000000000,0.00002926350000000000
54.00000000000000000000,0.00003513660000000000
54.00000000000000000000,0.00003652910000000000
54.00000000000000000000,0.00003402460000000000
54.00000000000000000000,0.00003170750000000000
54.00000000000000000000,0.00002999050000000000
54.00000000000000000000,0.00003088140000000000
54.00000000000000000000,0.00003330360000000000
54.00000000000000000000,0.00003602340000000000
54.00000000000000000000,0.00003626960000000000
55.00000000000000000000,0.00003620800000000000
55.00000000000000000000,0.00004095740000000000
55.00000000000000000000,0.00004322590000000000
55.00000000000000000000,0.00003936990000000000
55.00000000000000000000,0.00003270590000000000
55.00000000000000000000,0.00002754570000000000
55.00000000000000000000,0.00002560560000000000
55.00000000000000000000,0.00002555380000000000
55.00000000000000000000,0.00002721160000000000
55.00000000000000000000,0.00002692170000000000
55.00000000000000000000,0.00002616960000000000
55.00000000000000000000,0.00003098950000000000
55.00000000000000000000,0.00003667770000000000
55.00000000000000000000,0.00003690090000000000
55.00000000000000000000,0.00003439760000000000
55.00000000000000000000,0.00003314630000000000
55.00000000000000000000,0.00003533840000000000
55.00000000000000000000,0.00003942560000000000
55.00000000000000000000,0.00004334360000000000
55.00000000000000000000,0.00004622150000000000
56.00000000000000000000,0.00004636200000000000
56.00000000000000000000,0.00004218000000000000
56.00000000000000000000,0.00003804090000000000
56.00000000000000000000,0.00004077130000000000
56.00000000000000000000,0.00004755340000000000
56.00000000000000000000,0.00005155010000000000
56.00000000000000000000,0.00005188780000000000
56.00000000000000000000,0.00004970210000000000
56.00000000000000000000,0.00004895480000000000
56.00000000000000000000,0.00004910250000000000
56.00000000000000000000,0.00004727590000000000
56.00000000000000000000,0.00004566630000000000
56.00000000000000000000,0.00004793370000000000
56.00000000000000000000,0.00005140220000000000
56.00000000000000000000,0.00005324000000000000
56.00000000000000000000,0.00005450900000000000
56.00000000000000000000,0.00005426730000000000
56.00000000000000000000,0.00005377830000000000
56.00000000000000000000,0.00005255820000000000
56.00000000000000000000,0.00005015060000000000
57.00000000000000000000,0.00004701550000000000
57.00000000000000000000,0.00004597360000000000
57.00000000000000000000,0.00004585220000000000
57.00000000000000000000,0.00004308420000000000
57.00000000000000000000,0.00003965110000000000
57.00000000000000000000,0.00004007180000000000
57.00000000000000000000,0.00004315590000000000
57.00000000000000000000,0.00004587030000000000
57.00000000000000000000,0.00004739410000000000
57.00000000000000000000,0.00004878320000000000
57.00000000000000000000,0.00004791430000000000
57.00000000000000000000,0.00004447020000000000
57.00000000000000000000,0.00004489090000000000
57.00000000000000000000,0.00004761260000000000
57.00000000000000000000,0.00004706990000000000
57.00000000000000000000,0.00004487820000000000
57.00000000000000000000,0.00004319010000000000
57.00000000000000000000,0.00004222840000000000
57.00000000000000000000,0.00003992890000000000
57.00000000000000000000,0.00003786710000000000
58.00000000000000000000,0.00004191350000000000
58.00000000000000000000,0.00004773510000000000
58.00000000000000000000,0.00005018990000000000
58.00000000000000000000,0.00005006970000000000
58.00000000000000000000,0.00004994930000000000
58.00000000000000000000,0.00004723810000000000
58.00000000000000000000,0.00004204020000000000
58.00000000000000000000,0.00003722510000000000
58.00000000000000000000,0.00003632300000000000
58.00000000000000000000,0.00003954800000000000
58.00000000000000000000,0.00004523100000000000
58.00000000000000000000,0.00004887070000000000
58.00000000000000000000,0.00004677780000000000
58.00000000000000000000,0.00004150730000000000
58.00000000000000000000,0.00003966260000000000
58.00000000000000000000,0.00004232740000000000
58.00000000000000000000,0.00004199690000000000
58.00000000000000000000,0.00003840430000000000
58.00000000000000000000,0.00003655720000000000
58.00000000000000000000,0.00003967310000000000
59.00000000000000000000,0.00004342670000000000
59.00000000000000000000,0.00004284340000000000
59.00000000000000000000,0.00004016650000000000
59.00000000000000000000,0.00004001530000000000
59.00000000000000000000,0.00003943050000000000
59.00000000000000000000,0.00003518360000000000
59.00000000000000000000,0.00002966570000000000
59.00000000000000000000,0.00002808470000000000
59.00000000000000000000,0.00003002070000000000
59.00000000000000000000,0.00003425850000000000
59.00000000000000000000,0.00003671470000000000
59.00000000000000000000,0.00003620290000000000
59.00000000000000000000,0.00003452130000000000
59.00000000000000000000,0.00003359720000000000
59.00000000000000000000,0.00003374850000000000
59.00000000000000000000,0.00003332980000000000
59.00000000000000000000,0.00003115910000000000
59.00000000000000000000,0.00002962080000000000
59.00000000000000000000,0.00003473480000000000
59.00000000000000000000,0.00004421360000000000
60.00000000000000000000,0.00005346290000000000
60.00000000000000000000,0.00006189960000000000
60.00000000000000000000,0.00006886259999999999
60.00000000000000000000,0.00006930610000000000
60.00000000000000000000,0.00006341759999999999
60.00000000000000000000,0.00005396990000000000
60.00000000000000000000,0.00004585940000000000
60.00000000000000000000,0.00004332990000000000
60.00000000000000000000,0.00004526120000000000
60.00000000000000000000,0.00004197430000000000
60.00000000000000000000,0.00003608610000000000
60.00000000000000000000,0.00003201720000000000
60.00000000000000000000,0.00002657400000000000
60.00000000000000000000,0.00002389360000000000
60.00000000000000000000,0.00002312700000000000
60.00000000000000000000,0.00002261840000000000
60.00000000000000000000,0.00002135770000000000
60.00000000000000000000,0.00002155700000000000
60.00000000000000000000,0.00002216620000000000
60.00000000000000000000,0.00002131730000000000
61.00000000000000000000,0.00001909160000000000
61.00000000000000000000,0.00001665150000000000
61.00000000000000000000,0.00001562930000000000
61.00000000000000000000,0.00001438740000000000
61.00000000000000000000,0.00001478730000000000
61.00000000000000000000,0.00001989780000000000
61.00000000000000000000,0.00002784660000000000
61.00000000000000000000,0.00003475990000000000
61.00000000000000000000,0.00004242030000000000
61.00000000000000000000,0.00005291460000000000
61.00000000000000000000,0.00005926230000000000
61.00000000000000000000,0.00005982780000000000
61.00000000000000000000,0.00005959510000000000
61.00000000000000000000,0.00005613150000000000
61.00000000000000000000,0.00005331070000000000
61.00000000000000000000,0.00005273640000000000
61.00000000000000000000,0.00004936370000000000
61.00000000000000000000,0.00004722350000000000
61.00000000000000000000,0.00004686150000000000
61.00000000000000000000,0.00004358740000000000
62.00000000000000000000,0.00004522220000000000
62.00000000000000000000,0.00004815290000000000
62.00000000000000000000,0.00004728340000000000
62.00000000000000000000,0.00004452900000000000
62.00000000000000000000,0.00004110430000000000
62.00000000000000000000,0.00004147770000000000
62.00000000000000000000,0.00004312930000000000
62.00000000000000000000,0.00004162850000000000
62.00000000000000000000,0.00003708260000000000
62.00000000000000000000,0.00003470050000000000
62.00000000000000000000,0.00003548860000000000
62.00000000000000000000,0.00003838300000000000
62.00000000000000000000,0.00003882260000000000
62.00000000000000000000,0.00003640030000000000
62.00000000000000000000,0.00003528550000000000
62.00000000000000000000,0.00003759940000000000
62.00000000000000000000,0.00003994750000000000
62.00000000000000000000,0.00003917500000000000
62.00000000000000000000,0.00003411240000000000
62.00000000000000000000,0.00002934400000000000
63.00000000000000000000,0.00003144810000000000
63.00000000000000000000,0.00003552770000000000
63.00000000000000000000,0.00003439090000000000
63.00000000000000000000,0.00003005010000000000
63.00000000000000000000,0.00002851780000000000
63.00000000000000000000,0.00003125200000000000
63.00000000000000000000,0.00003669490000000000
63.00000000000000000000,0.00003944280000000000
63.00000000000000000000,0.00003757840000000000
63.00000000000000000000,0.00003503520000000000
63.00000000000000000000,0.00003482330000000000
63.00000000000000000000,0.00003618870000000000
63.00000000000000000000,0.00003617020000000000
63.00000000000000000000,0.00003816980000000000
63.00000000000000000000,0.00004123910000000000
63.00000000000000000000,0.00004232850000000000
63.00000000000000000000,0.00004266310000000000
63.00000000000000000000,0.00004105300000000000
63.00000000000000000000,0.00003764400000000000
63.00000000000000000000,0.00003566350000000000
64.00000000000000000000,0.00003672810000000000
64.00000000000000000000,0.00003868970000000000
64.00000000000000000000,0.00004086510000000000
64.00000000000000000000,0.00004129860000000000
64.00000000000000000000,0.00003997730000000000
64.00000000000000000000,0.00003870970000000000
64.00000000000000000000,0.00003895180000000000
64.00000000000000000000,0.00004211930000000000
64.00000000000000000000,0.00004541890000000000
64.00000000000000000000,0.00004007010000000000
64.00000000000000000000,0.00003429310000000000
64.00000000000000000000,0.00003605830000000000
64.00000000000000000000,0.00004044950000000000
64.00000000000000000000,0.00004179280000000000
64.00000000000000000000,0.00003989390000000000
64.00000000000000000000,0.00004021170000000000
64.00000000000000000000,0.00003821480000000000
64.00000000000000000000,0.00003616450000000000
64.00000000000000000000,0.00003335100000000000
64.00000000000000000000,0.00003084760000000000
65.00000000000000000000,0.00003353720000000000
65.00000000000000000000,0.00003766100000000000
65.00000000000000000000,0.00003831110000000000
65.00000000000000000000,0.00003424910000000000
65.00000000000000000000,0.00002884420000000000
65.00000000000000000000,0.00002585880000000000
65.00000000000000000000,0.00002709530000000000
65.00000000000000000000,0.00002851340000000000
65.00000000000000000000,0.00002862780000000000
65.00000000000000000000,0.00003035630000000000
65.00000000000000000000,0.00003440530000000000
65.00000000000000000000,0.00003707760000000000
65.00000000000000000000,0.00004069470000000000
65.00000000000000000000,0.00004609940000000000
65.00000000000000000000,0.00004789410000000000
65.00000000000000000000,0.00004685070000000000
65.00000000000000000000,0.00004712380000000000
65.00000000000000000000,0.00004823000000000000
65.00000000000000000000,0.00005004670000000000
65.00000000000000000000,0.00004828920000000000
66.00000000000000000000,0.00004181560000000000
66.00000000000000000000,0.00004166530000000000
66.00000000000000000000,0.00004409060000000000
66.00000000000000000000,0.00004291820000000000
66.00000000000000000000,0.00004162880000000000
66.00000000000000000000,0.00004023500000000000
66.00000000000000000000,0.00003811840000000000
66.00000000000000000000,0.00003510130000000000
66.00000000000000000000,0.00003197370000000000
66.00000000000000000000,0.00003175880000000000
66.00000000000000000000,0.00003463220000000000
66.00000000000000000000,0.00003740010000000000
66.00000000000000000000,0.00003779950000000000
66.00000000000000000000,0.00003731890000000000
66.00000000000000000000,0.00003764170000000000
66.00000000000000000000,0.00003738160000000000
66.00000000000000000000,0.00003829920000000000
66.00000000000000000000,0.00004347710000000000
66.00000000000000000000,0.00005094110000000000
66.00000000000000000000,0.00005640810000000000
67.00000000000000000000,0.00005849750000000000
67.00000000000000000000,0.00005804830000000000
67.00000000000000000000,0.00005553400000000000
67.00000000000000000000,0.00005139690000000000
67.00000000000000000000,0.00005041500000000000
67.00000000000000000000,0.00005190390000000000
67.00000000000000000000,0.00005029880000000000
67.00000000000000000000,0.00004821950000000000
67.00000000000000000000,0.00004961750000000000
67.00000000000000000000,0.00005332400000000000
67.00000000000000000000,0.00005508490000000000
67.00000000000000000000,0.00005292500000000000
67.00000000000000000000,0.00004621870000000000
67.00000000000000000000,0.00004007020000000000
67.00000000000000000000,0.00003763960000000000
67.00000000000000000000,0.00003764430000000000
67.00000000000000000000,0.00004024980000000000
67.00000000000000000000,0.00004329130000000000
67.00000000000000000000,0.00004289880000000000
67.00000000000000000000,0.00003867770000000000
68.00000000000000000000,0.00003799000000000000
68.00000000000000000000,0.00004183230000000000
68.00000000000000000000,0.00004381460000000000
68.00000000000000000000,0.00004182240000000000
68.00000000000000000000,0.00003825220000000000
68.00000000000000000000,0.00003705950000000000
68.00000000000000000000,0.00004024310000000000
68.00000000000000000000,0.00004534170000000000
68.00000000000000000000,0.00004757680000000000
68.00000000000000000000,0.00004244010000000000
68.00000000000000000000,0.00003306120000000000
68.00000000000000000000,0.00002972340000000000
68.00000000000000000000,0.00003510340000000000
68.00000000000000000000,0.00003806540000000000
68.00000000000000000000,0.00003650650000000000
68.00000000000000000000,0.00003679680000000000
68.00000000000000000000,0.00003857250000000000
68.00000000000000000000,0.00003966860000000000
68.00000000000000000000,0.00003992460000000000
68.00000000000000000000,0.00003943050000000000
69.00000000000000000000,0.00003909150000000000
69.00000000000000000000,0.00004089130000000000
69.00000000000000000000,0.00004398210000000000
69.00000000000000000000,0.00004588380000000000
69.00000000000000000000,0.00004366520000000000
69.00000000000000000000,0.00003937920000000000
69.00000000000000000000,0.00003822520000000000
69.00000000000000000000,0.00004015280000000000
69.00000000000000000000,0.00004032200000000000
69.00000000000000000000,0.00003711380000000000
69.00000000000000000000,0.00003361750000000000
69.00000000000000000000,0.00003460380000000000
69.00000000000000000000,0.00003778650000000000
69.00000000000000000000,0.00003884020000000000
69.00000000000000000000,0.00003693110000000000
69.00000000000000000000,0.00003532210000000000
69.00000000000000000000,0.00003614200000000000
69.00000000000000000000,0.00003548820000000000
69.00000000000000000000,0.00003562920000000000
69.00000000000000000000,0.00004052110000000000
70.00000000000000000000,0.00004654780000000000
70.00000000000000000000,0.00005081980000000000
70.00000000000000000000,0.00005147780000000000
70.00000000000000000000,0.00004982680000000000
70.00000000000000000000,0.00005042490000000000
70.00000000000000000000,0.00005307350000000000
70.00000000000000000000,0.00005455200000000000
70.00000000000000000000,0.00005179110000000000
70.00000000000000000000,0.00004853730000000000
70.00000000000000000000,0.00004622970000000000
70.00000000000000000000,0.00004294260000000000
70.00000000000000000000,0.00003884570000000000
70.00000000000000000000,0.00003613530000000000
70.00000000000000000000,0.00003633990000000000
70.00000000000000000000,0.00003676740000000000
70.00000000000000000000,0.00003563230000000000
70.00000000000000000000,0.00003513250000000000
70.00000000000000000000,0.00003865030000000000
70.00000000000000000000,0.00004431890000000000
70.00000000000000000000,0.00004667020000000000
71.00000000000000000000,0.00004479790000000000
71.00000000000000000000,0.00003978650000000000
71.00000000000000000000,0.00003489510000000000
71.00000000000000000000,0.00003316100000000000
71.00000000000000000000,0.00003624970000000000
71.00000000000000000000,0.00003983800000000000
71.00000000000000000000,0.00003877310000000000
71.00000000000000000000,0.00003651340000000000
71.00000000000000000000,0.00003333440000000000
71.00000000000000000000,0.00003387890000000000
71.00000000000000000000,0.00003635510000000000
71.00000000000000000000,0.00004035450000000000
71.00000000000000000000,0.00004501300000000000
71.00000000000000000000,0.00004612300000000000
71.00000000000000000000,0.00004439620000000000
71.00000000000000000000,0.00004167320000000000
71.00000000000000000000,0.00003945030000000000
71.00000000000000000000,0.00003487190000000000
71.00000000000000000000,0.00002756820000000000
71.00000000000000000000,0.00002091430000000000
72.00000000000000000000,0.00002141110000000000
72.00000000000000000000,0.00002794610000000000
72.00000000000000000000,0.00003504380000000000
72.00000000000000000000,0.00003760630000000000
72.00000000000000000000,0.00003809090000000000
72.00000000000000000000,0.00004069680000000000
72.00000000000000000000,0.00004198020000000000
72.00000000000000000000,0.00004028720000000000
72.00000000000000000000,0.00004030680000000000
72.00000000000000000000,0.00003952080000000000
72.00000000000000000000,0.00003741310000000000
72.00000000000000000000,0.00003993250000000000
72.00000000000000000000,0.00004248490000000000
72.00000000000000000000,0.00004254400000000000
72.00000000000000000000,0.00004269690000000000
72.00000000000000000000,0.00004236180000000000
72.00000000000000000000,0.00004317520000000000
72.00000000000000000000,0.00004432330000000000
72.00000000000000000000,0.00004106090000000000
72.00000000000000000000,0.00003737970000000000
73.00000000000000000000,0.00003853370000000000
73.00000000000000000000,0.00003952040000000000
73.00000000000000000000,0.00003816940000000000
73.00000000000000000000,0.00003568730000000000
73.00000000000000000000,0.00003468820000000000
73.00000000000000000000,0.00003617160000000000
73.00000000000000000000,0.00003737830000000000
73.00000000000000000000,0.00003630670000000000
73.00000000000000000000,0.00003180540000000000
73.00000000000000000000,0.00002840910000000000
73.00000000000000000000,0.00002971980000000000
73.00000000000000000000,0.00003402080000000000
73.00000000000000000000,0.00003600350000000000
73.00000000000000000000,0.00003643700000000000
73.00000000000000000000,0.00003683780000000000
73.00000000000000000000,0.00003790910000000000
73.00000000000000000000,0.00004088210000000000
73.00000000000000000000,0.00004517410000000000
73.00000000000000000000,0.00004872300000000000
73.00000000000000000000,0.00005006150000000000
74.00000000000000000000,0.00005266110000000000
74.00000000000000000000,0.00005141530000000000
74.00000000000000000000,0.00004750250000000000
74.00000000000000000000,0.00004656960000000000
74.00000000000000000000,0.00004500940000000000
74.00000000000000000000,0.00004332950000000000
74.00000000000000000000,0.00004132380000000000
74.00000000000000000000,0.00003869740000000000
74.00000000000000000000,0.00003831790000000000
74.00000000000000000000,0.00004289680000000000
74.00000000000000000000,0.00004779100000000000
74.00000000000000000000,0.00004620120000000000
74.00000000000000000000,0.00004003620000000000
74.00000000000000000000,0.00003480100000000000
74.00000000000000000000,0.00003205180000000000
74.00000000000000000000,0.00003240270000000000
74.00000000000000000000,0.00003487600000000000
74.00000000000000000000,0.00003658900000000000
74.00000000000000000000,0.00003694720000000000
74.00000000000000000000,0.00003579280000000000
75.00000000000000000000,0.00003455760000000000
75.00000000000000000000,0.00003524370000000000
75.00000000000000000000,0.00003667690000000000
75.00000000000000000000,0.00003588820000000000
75.00000000000000000000,0.00003253540000000000
75.00000000000000000000,0.00002870140000000000
75.00000000000000000000,0.00002677010000000000
75.00000000000000000000,0.00002993540000000000
75.00000000000000000000,0.00003468730000000000
75.00000000000000000000,0.00003506840000000000
75.00000000000000000000,0.00003467130000000000
75.00000000000000000000,0.00003273640000000000
75.00000000000000000000,0.00003163770000000000
75.00000000000000000000,0.00003503620000000000
75.00000000000000000000,0.00003983320000000000
75.00000000000000000000,0.00004107500000000000
75.00000000000000000000,0.00003989940000000000
75.00000000000000000000,0.00003931330000000000
75.00000000000000000000,0.00003852350000000000
75.00000000000000000000,0.00003923180000000000
76.00000000000000000000,0.00003917260000000000
76.00000000000000000000,0.00003979690000000000
76.00000000000000000000,0.00004478870000000000
76.00000000000000000000,0.00005305090000000000
76.00000000000000000000,0.00005544100000000000
76.00000000000000000000,0.00004987500000000000
76.00000000000000000000,0.00004609420000000000
76.00000000000000000000,0.00004811530000000000
76.00000000000000000000,0.00005028150000000000
76.00000000000000000000,0.00004547560000000000
76.00000000000000000000,0.00003875460000000000
76.00000000000000000000,0.00003943440000000000
76.00000000000000000000,0.00004290700000000000
76.00000000000000000000,0.00004287200000000000
76.00000000000000000000,0.00004153170000000000
76.00000000000000000000,0.00003750520000000000
76.00000000000000000000,0.00003287010000000000
76.00000000000000000000,0.00003328050000000000
76.00000000000000000000,0.00003397380000000000
76.00000000000000000000,0.00003420330000000000
77.00000000000000000000,0.00003411990000000000
77.00000000000000000000,0.00003203850000000000
77.00000000000000000000,0.00003184870000000000
77.00000000000000000000,0.00003658270000000000
77.00000000000000000000,0.00004462670000000000
77.00000000000000000000,0.00004868540000000000
77.00000000000000000000,0.00004723520000000000
77.00000000000000000000,0.00004542340000000000
77.00000000000000000000,0.00004814980000000000
77.00000000000000000000,0.00005220180000000000
77.00000000000000000000,0.00005225210000000000
77.00000000000000000000,0.00004893530000000000
77.00000000000000000000,0.00004683760000000000
77.00000000000000000000,0.00004531050000000000
77.00000000000000000000,0.00004252860000000000
77.00000000000000000000,0.00004031950000000000
77.00000000000000000000,0.00004266990000000000
77.00000000000000000000,0.00004942830000000000
77.00000000000000000000,0.00005553000000000000
77.00000000000000000000,0.00005748660000000000
78.00000000000000000000,0.00005317110000000000
78.00000000000000000000,0.00004626370000000000
78.00000000000000000000,0.00004249770000000000
78.00000000000000000000,0.00004136580000000000
78.00000000000000000000,0.00004106990000000000
78.00000000000000000000,0.00004057450000000000
78.00000000000000000000,0.00003764970000000000
78.00000000000000000000,0.00003500130000000000
78.00000000000000000000,0.00003320740000000000
78.00000000000000000000,0.00003277020000000000
78.00000000000000000000,0.00003431430000000000
78.00000000000000000000,0.00003553400000000000
78.00000000000000000000,0.00003430160000000000
78.00000000000000000000,0.00003262900000000000
78.00000000000000000000,0.00003265410000000000
78.00000000000000000000,0.00003266710000000000
78.00000000000000000000,0.00002891750000000000
78.00000000000000000000,0.00002529880000000000
78.00000000000000000000,0.00002790750000000000
78.00000000000000000000,0.00003059530000000000
79.00000000000000000000,0.00002863040000000000
79.00000000000000000000,0.00002476480000000000
79.00000000000000000000,0.00002296300000000000
79.00000000000000000000,0.00002518370000000000
79.00000000000000000000,0.00002693760000000000
79.00000000000000000000,0.00002468280000000000
79.00000000000000000000,0.00002580780000000000
79.00000000000000000000,0.00003077250000000000
79.00000000000000000000,0.00003166630000000000
79.00000000000000000000,0.00003167620000000000
79.00000000000000000000,0.00003518170000000000
79.00000000000000000000,0.00003717210000000000
79.00000000000000000000,0.00003712180000000000
79.00000000000000000000,0.00003736380000000000
79.00000000000000000000,0.00004054650000000000
79.00000000000000000000,0.00004571780000000000
79.00000000000000000000,0.00004794650000000000
79.00000000000000000000,0.00004872900000000000
79.00000000000000000000,0.00004802870000000000
79.00000000000000000000,0.00004659140000000000
80.00000000000000000000,0.00004642630000000000
80.00000000000000000000,0.00004665190000000000
80.00000000000000000000,0.00004310720000000000
80.00000000000000000000,0.00003977780000000000
80.00000000000000000000,0.00004096550000000000
80.00000000000000000000,0.00004217230000000000
80.00000000000000000000,0.00004175810000000000
80.00000000000000000000,0.00004336090000000000
80.00000000000000000000,0.00004824620000000000
80.00000000000000000000,0.00005194430000000000
80.00000000000000000000,0.00005411720000000000
80.00000000000000000000,0.00005449810000000000
80.00000000000000000000,0.00005112370000000000
80.00000000000000000000,0.00004655420000000000
80.00000000000000000000,0.00004507830000000000
80.00000000000000000000,0.00004574990000000000
80.00000000000000000000,0.00004652210000000000
80.00000000000000000000,0.00004687600000000000
80.00000000000000000000,0.00004896700000000000
80.00000000000000000000,0.00004806600000000000
81.00000000000000000000,0.00004445400000000000
81.00000000000000000000,0.00004442300000000000
81.00000000000000000000,0.00004509180000000000
81.00000000000000000000,0.00004399830000000000
81.00000000000000000000,0.00004359680000000000
81.00000000000000000000,0.00004641720000000000
81.00000000000000000000,0.00004971260000000000
81.00000000000000000000,0.00005043210000000000
81.00000000000000000000,0.00004661300000000000
81.00000000000000000000,0.00004184720000000000
81.00000000000000000000,0.00004123080000000000
81.00000000000000000000,0.00004460540000000000
81.00000000000000000000,0.00004514920000000000
81.00000000000000000000,0.00004089690000000000
81.00000000000000000000,0.00003692430000000000
81.00000000000000000000,0.00003509360000000000
81.00000000000000000000,0.00003647380000000000
81.00000000000000000000,0.00003844740000000000
81.00000000000000000000,0.00003873230000000000
81.00000000000000000000,0.00004023120000000000
82.00000000000000000000,0.00004240290000000000
82.00000000000000000000,0.00004165360000000000
82.00000000000000000000,0.00004015380000000000
82.00000000000000000000,0.00003926580000000000
82.00000000000000000000,0.00003728120000000000
82.00000000000000000000,0.00003653030000000000
82.00000000000000000000,0.00003790900000000000
82.00000000000000000000,0.00003938820000000000
82.00000000000000000000,0.00003696090000000000
82.00000000000000000000,0.00003237680000000000
82.00000000000000000000,0.00003307660000000000
82.00000000000000000000,0.00003654310000000000
82.00000000000000000000,0.00003713210000000000
82.00000000000000000000,0.00003490470000000000
82.00000000000000000000,0.00003374940000000000
82.00000000000000000000,0.00003499460000000000
82.00000000000000000000,0.00003795560000000000
82.00000000000000000000,0.00004014630000000000
82.00000000000000000000,0.00003753630000000000
82.00000000000000000000,0.00003395410000000000
83.00000000000000000000,0.00003482280000000000
83.00000000000000000000,0.00003652010000000000
83.00000000000000000000,0.00003563640000000000
83.00000000000000000000,0.00003456370000000000
83.00000000000000000000,0.00003443150000000000
83.00000000000000000000,0.00003781050000000000
83.00000000000000000000,0.00004011740000000000
83.00000000000000000000,0.00003945370000000000
83.00000000000000000000,0.00004078330000000000
83.00000000000000000000,0.00004120780000000000
83.00000000000000000000,0.00003941030000000000
83.00000000000000000000,0.00003549200000000000
83.00000000000000000000,0.00003739710000000000
83.00000000000000000000,0.00004396370000000000
83.00000000000000000000,0.00004519970000000000
83.00000000000000000000,0.00004051650000000000
83.00000000000000000000,0.00003617810000000000
83.00000000000000000000,0.00003577260000000000
83.00000000000000000000,0.00003548580000000000
83.00000000000000000000,0.00003431540000000000
84.00000000000000000000,0.00003223600000000000
84.00000000000000000000,0.00003148200000000000
84.00000000000000000000,0.00003231220000000000
84.00000000000000000000,0.00003388620000000000
84.00000000000000000000,0.00003491680000000000
84.00000000000000000000,0.00003609270000000000
84.00000000000000000000,0.00003523380000000000
84.00000000000000000000,0.00003352270000000000
84.00000000000000000000,0.00003364420000000000
84.00000000000000000000,0.00003287280000000000
84.00000000000000000000,0.00003234760000000000
84.00000000000000000000,0.00003677110000000000
84.00000000000000000000,0.00004208650000000000
84.00000000000000000000,0.00004186620000000000
84.00000000000000000000,0.00004123060000000000
84.00000000000000000000,0.00004315200000000000
84.00000000000000000000,0.00004453060000000000
84.00000000000000000000,0.00004176160000000000
84.00000000000000000000,0.00003903730000000000
84.00000000000000000000,0.00004001100000000000
85.00000000000000000000,0.00004311770000000000
85.00000000000000000000,0.00004669200000000000
85.00000000000000000000,0.00004831920000000000
85.00000000000000000000,0.00004813170000000000
85.00000000000000000000,0.00004917540000000000
85.00000000000000000000,0.00005019500000000000
85.00000000000000000000,0.00004935720000000000
85.00000000000000000000,0.00005087330000000000
85.00000000000000000000,0.00005262270000000000
85.00000000000000000000,0.00004944360000000000
85.00000000000000000000,0.00004341590000000000
85.00000000000000000000,0.00004078580000000000
85.00000000000000000000,0.00004335420000000000
85.00000000000000000000,0.00004868760000000000
85.00000000000000000000,0.00005293150000000000
85.00000000000000000000,0.00005251960000000000
85.00000000000000000000,0.00004805420000000000
85.00000000000000000000,0.00004360350000000000
85.00000000000000000000,0.00003996050000000000
85.00000000000000000000,0.00003474350000000000
86.00000000000000000000,0.00003360310000000000
86.00000000000000000000,0.00003999220000000000
86.00000000000000000000,0.00004515270000000000
86.00000000000000000000,0.00004141920000000000
86.00000000000000000000,0.00003623710000000000
86.00000000000000000000,0.00003576110000000000
86.00000000000000000000,0.00003465100000000000
86.00000000000000000000,0.00003234120000000000
86.00000000000000000000,0.00003396520000000000
86.00000000000000000000,0.00003771640000000000
86.00000000000000000000,0.00004022780000000000
86.00000000000000000000,0.00004146210000000000
86.00000000000000000000,0.00004188430000000000
86.00000000000000000000,0.00004423150000000000
86.00000000000000000000,0.00004756800000000000
86.00000000000000000000,0.00004795710000000000
86.00000000000000000000,0.00004454330000000000
86.00000000000000000000,0.00004190780000000000
86.00000000000000000000,0.00004324610000000000
86.00000000000000000000,0.00004499930000000000
87.00000000000000000000,0.00004255810000000000
87.00000000000000000000,0.00003858050000000000
87.00000000000000000000,0.00003618560000000000
87.00000000000000000000,0.00003302550000000000
87.00000000000000000000,0.00002917380000000000
87.00000000000000000000,0.00002710520000000000
87.00000000000000000000,0.00002504590000000000
87.00000000000000000000,0.00002164290000000000
87.00000000000000000000,0.00002337480000000000
87.00000000000000000000,0.00003354970000000000
87.00000000000000000000,0.00004250220000000000
87.00000000000000000000,0.00004776940000000000
87.00000000000000000000,0.00005009350000000000
87.00000000000000000000,0.00004761000000000000
87.00000000000000000000,0.00004505700000000000
87.00000000000000000000,0.00004390790000000000
87.00000000000000000000,0.00004518770000000000
87.00000000000000000000,0.00004682820000000000
87.00000000000000000000,0.00004564490000000000
87.00000000000000000000,0.00004007060000000000
88.00000000000000000000,0.00003440900000000000
88.00000000000000000000,0.00003124700000000000
88.00000000000000000000,0.00003020090000000000
88.00000000000000000000,0.00003100580000000000
88.00000000000000000000,0.00003198730000000000
88.00000000000000000000,0.00003256140000000000
88.00000000000000000000,0.00003305580000000000
88.00000000000000000000,0.00003557990000000000
88.00000000000000000000,0.00003954100000000000
88.00000000000000000000,0.00004221730000000000
88.00000000000000000000,0.00004383630000000000
88.00000000000000000000,0.00004579400000000000
88.00000000000000000000,0.00004912030000000000
88.00000000000000000000,0.00005183190000000000
88.00000000000000000000,0.00004973390000000000
88.00000000000000000000,0.00004840810000000000
88.00000000000000000000,0.00004708880000000000
88.00000000000000000000,0.00004476610000000000
88.00000000000000000000,0.00004310730000000000
88.00000000000000000000,0.00004345550000000000
89.00000000000000000000,0.00004780960000000000
89.00000000000000000000,0.00005019480000000000
89.00000000000000000000,0.00004570120000000000
89.00000000000000000000,0.00003958560000000000
89.00000000000000000000,0.00003741850000000000
89.00000000000000000000,0.00003825000000000000
89.00000000000000000000,0.00004083450000000000
89.00000000000000000000,0.00004132380000000000
89.00000000000000000000,0.00003607150000000000
89.00000000000000000000,0.00003016760000000000
89.00000000000000000000,0.00002950080000000000
89.00000000000000000000,0.00003109440000000000
89.00000000000000000000,0.00003378600000000000
89.00000000000000000000,0.00003818060000000000
89.00000000000000000000,0.00004290530000000000
89.00000000000000000000,0.00004651920000000000
89.00000000000000000000,0.00004695050000000000
89.00000000000000000000,0.00004263100000000000
89.00000000000000000000,0.00003988830000000000
89.00000000000000000000,0.00004306440000000000
90.00000000000000000000,0.00004679150000000000
90.00000000000000000000,0.00004636250000000000
90.00000000000000000000,0.00004471110000000000
90.00000000000000000000,0.00003882230000000000
90.00000000000000000000,0.00003054920000000000
90.00000000000000000000,0.00002899050000000000
90.00000000000000000000,0.00003069130000000000
90.00000000000000000000,0.00003384440000000000
90.00000000000000000000,0.00003637780000000000
90.00000000000000000000,0.00003647640000000000
90.00000000000000000000,0.00003474560000000000
90.00000000000000000000,0.00003058840000000000
90.00000000000000000000,0.00002706410000000000
90.00000000000000000000,0.00002931770000000000
90.00000000000000000000,0.00003349260000000000
90.00000000000000000000,0.00003503310000000000
90.00000000000000000000,0.00003489950000000000
90.00000000000000000000,0.00003588030000000000
90.00000000000000000000,0.00003781710000000000
90.00000000000000000000,0.00003869850000000000
91.00000000000000000000,0.00003716740000000000
91.00000000000000000000,0.00003396370000000000
91.00000000000000000000,0.00003227050000000000
91.00000000000000000000,0.00003297800000000000
91.00000000000000000000,0.00003615130000000000
91.00000000000000000000,0.00003919750000000000
91.00000000000000000000,0.00003830850000000000
91.00000000000000000000,0.00003606010000000000
91.00000000000000000000,0.00003392770000000000
91.00000000000000000000,0.00003339400000000000
91.00000000000000000000,0.00003683030000000000
91.00000000000000000000,0.00003529980000000000
91.00000000000000000000,0.00003104620000000000
91.00000000000000000000,0.00002843020000000000
91.00000000000000000000,0.00002828860000000000
91.00000000000000000000,0.00003025260000000000
91.00000000000000000000,0.00003338640000000000
91.00000000000000000000,0.00003923860000000000
91.00000000000000000000,0.00004470950000000000
91.00000000000000000000,0.00004336010000000000
92.00000000000000000000,0.00003817100000000000
92.00000000000000000000,0.00003699820000000000
92.00000000000000000000,0.00004057920000000000
92.00000000000000000000,0.00004509610000000000
92.00000000000000000000,0.00004633680000000000
92.00000000000000000000,0.00004484110000000000
92.00000000000000000000,0.00004172360000000000
92.00000000000000000000,0.00003805270000000000
92.00000000000000000000,0.00003485600000000000
92.00000000000000000000,0.00003518680000000000
92.00000000000000000000,0.00003512090000000000
92.00000000000000000000,0.00003163090000000000
92.00000000000000000000,0.00002976610000000000
92.00000000000000000000,0.00002957500000000000
92.00000000000000000000,0.00003109340000000000
92.00000000000000000000,0.00004013780000000000
92.00000000000000000000,0.00005491340000000000
92.00000000000000000000,0.00006343180000000000
92.00000000000000000000,0.00006321490000000000
92.00000000000000000000,0.00006126019999999999
93.00000000000000000000,0.00006091220000000000
93.00000000000000000000,0.00006208990000000000
93.00000000000000000000,0.00006153690000000000
93.00000000000000000000,0.00006171030000000000
93.00000000000000000000,0.00006304240000000000
93.00000000000000000000,0.00006537620000000001
93.00000000000000000000,0.00006724590000000001
93.00000000000000000000,0.00006762039999999999
93.00000000000000000000,0.00006527170000000000
93.00000000000000000000,0.00006098840000000000
93.00000000000000000000,0.00005720770000000000
93.00000000000000000000,0.00005209470000000000
93.00000000000000000000,0.00004516950000000000
93.00000000000000000000,0.00004087670000000000
93.00000000000000000000,0.00004111490000000000
93.00000000000000000000,0.00004206230000000000
93.00000000000000000000,0.00004180370000000000
93.00000000000000000000,0.00003890900000000000
93.00000000000000000000,0.00003648790000000000
93.00000000000000000000,0.00003828010000000000
94.00000000000000000000,0.00004061550000000000
94.00000000000000000000,0.00003548300000000000
94.00000000000000000000,0.00003166110000000000
94.00000000000000000000,0.00003088550000000000
94.00000000000000000000,0.00002422040000000000
94.00000000000000000000,0.00001703180000000000
94.00000000000000000000,0.00001550230000000000
94.00000000000000000000,0.00001797690000000000
94.00000000000000000000,0.00002231590000000000
94.00000000000000000000,0.00002551870000000000
94.00000000000000000000,0.00002572010000000000
94.00000000000000000000,0.00002437750000000000
94.00000000000000000000,0.00002388700000000000
94.00000000000000000000,0.00002449570000000000
94.00000000000000000000,0.00002688210000000000
94.00000000000000000000,0.00003126630000000000
94.00000000000000000000,0.00003460590000000000
94.00000000000000000000,0.00003472880000000000
94.00000000000000000000,0.00003419610000000000
94.00000000000000000000,0.00003465150000000000
95.00000000000000000000,0.00003536720000000000
95.00000000000000000000,0.00003610080000000000
95.00000000000000000000,0.00003534190000000000
95.00000000000000000000,0.00003495000000000000
95.00000000000000000000,0.00003465420000000000
95.00000000000000000000,0.00003250590000000000
95.00000000000000000000,0.00003317000000000000
95.00000000000000000000,0.00003801070000000000
95.00000000000000000000,0.00004221180000000000
95.00000000000000000000,0.00004500980000000000
95.00000000000000000000,0.00004803840000000000
95.00000000000000000000,0.00004844890000000000
95.00000000000000000000,0.00004697230000000000
95.00000000000000000000,0.00004787150000000000
95.00000000000000000000,0.00004613990000000000
95.00000000000000000000,0.00004347720000000000
95.00000000000000000000,0.00003976720000000000
95.00000000000000000000,0.00003505100000000000
95.00000000000000000000,0.00003259120000000000
95.00000000000000000000,0.00003240950000000000
96.00000000000000000000,0.00003310800000000000
96.00000000000000000000,0.00003190800000000000
96.00000000000000000000,0.00003067100000000000
96.00000000000000000000,0.00003258450000000000
96.00000000000000000000,0.00003600000000000000
96.00000000000000000000,0.00003645530000000000
96.00000000000000000000,0.00003703230000000000
96.00000000000000000000,0.00004108160000000000
96.00000000000000000000,0.00004388120000000000
96.00000000000000000000,0.00004346630000000000
96.00000000000000000000,0.00004513620000000000
96.00000000000000000000,0.00004573320000000000
96.00000000000000000000,0.00004285820000000000
96.00000000000000000000,0.00004128010000000000
96.00000000000000000000,0.00004087550000000000
96.00000000000000000000,0.00004200510000000000
96.00000000000000000000,0.00004704000000000000
96.00000000000000000000,0.00005051230000000000
96.00000000000000000000,0.00004757620000000000
96.00000000000000000000,0.00004511700000000000
97.00000000000000000000,0.00004583720000000000
97.00000000000000000000,0.00004369060000000000
97.00000000000000000000,0.00004074680000000000
97.00000000000000000000,0.00003959360000000000
97.00000000000000000000,0.00003885100000000000
97.00000000000000000000,0.00003639570000000000
97.00000000000000000000,0.00003205920000000000
97.00000000000000000000,0.00003035120000000000
97.00000000000000000000,0.00003226700000000000
97.00000000000000000000,0.00003428070000000000
97.00000000000000000000,0.00003344340000000000
97.00000000000000000000,0.00003178390000000000
97.00000000000000000000,0.00003076520000000000
97.00000000000000000000,0.00003020170000000000
97.00000000000000000000,0.00003104700000000000
97.00000000000000000000,0.00003294500000000000
97.00000000000000000000,0.00003313540000000000
97.00000000000000000000,0.00002920880000000000
97.00000000000000000000,0.00002611080000000000
97.00000000000000000000,0.00002698060000000000
98.00000000000000000000,0.00002923510000000000
98.00000000000000000000,0.00002917640000000000
98.00000000000000000000,0.00002815240000000000
98.00000000000000000000,0.00003317150000000000
98.00000000000000000000,0.00004211700000000000
98.00000000000000000000,0.00004929920000000000
98.00000000000000000000,0.00005270590000000000
98.00000000000000000000,0.00005299100000000000
98.00000000000000000000,0.00004919800000000000
98.00000000000000000000,0.00004317310000000000
98.00000000000000000000,0.00003470250000000000
98.00000000000000000000,0.00002188150000000000
98.00000000000000000000,0.00001020420000000000
98.00000000000000000000,0.00000377338000000000
98.00000000000000000000,-0.00000073027500000000
98.00000000000000000000,-0.00000719169000000000
98.00000000000000000000,-0.00001645900000000000
98.00000000000000000000,-0.00002629890000000000
98.00000000000000000000,-0.00003041730000000000
98.00000000000000000000,-0.00002319890000000000
99.00000000000000000000,-0.00000160139000000000
99.00000000000000000000,0.00003305300000000000
99.00000000000000000000,0.00007598589999999999
99.00000000000000000000,0.00011899300000000000
99.00000000000000000000,0.00015087100000000001
99.00000000000000000000,0.00016844500000000000
99.00000000000000000000,0.00017772400000000001
99.00000000000000000000,0.00018026300000000001
99.00000000000000000000,0.00017681700000000001
99.00000000000000000000,0.00016856400000000001
99.00000000000000000000,0.00015573299999999999
99.00000000000000000000,0.00013980000000000001
99.00000000000000000000,0.00012366999999999999
99.00000000000000000000,0.00010896700000000000
99.00000000000000000000,0.00009208840000000000
99.00000000000000000000,0.00007264970000000000
99.00000000000000000000,0.00005828330000000000
99.00000000000000000000,0.00004988220000000000
99.00000000000000000000,0.00004379700000000000
99.00000000000000000000,0.00003924760000000000
100.00000000000000000000,0.00003537390000000000
100.00000000000000000000,0.00003161480000000000
100.00000000000000000000,0.00002919940000000000
100.00000000000000000000,0.00002708240000000000
100.00000000000000000000,0.00002491720000000000
100.00000000000000000000,0.00002496200000000000
100.00000000000000000000,0.00002490650000000000
100.00000000000000000000,0.00002156240000000000
100.00000000000000000000,0.00001816380000000000
100.00000000000000000000,0.00001697540000000000
100.00000000000000000000,0.00001709040000000000
100.00000000000000000000,0.00001765690000000000
100.00000000000000000000,0.00001437390000000000
100.00000000000000000000,0.00000940861000000000
100.00000000000000000000,0.00001014720000000000
100.00000000000000000000,0.00001472290000000000
100.00000000000000000000,0.00001634670000000000
100.00000000000000000000,0.00001702020000000000
100.00000000000000000000,0.00001557170000000000
100.00000000000000000000,0.00001129680000000000
101.00000000000000000000,0.00000577501000000000
101.00000000000000000000,0.00000102657000000000
101.00000000000000000000,-0.00000340497000000000
101.00000000000000000000,-0.00000849417000000000
101.00000000000000000000,-0.00001025320000000000
101.00000000000000000000,-0.00001095320000000000
101.00000000000000000000,-0.00001314070000000000
101.00000000000000000000,-0.00001722410000000000
101.00000000000000000000,-0.00002041870000000000
101.00000000000000000000,-0.00001539330000000000
101.00000000000000000000,-0.00000354406000000000
101.00000000000000000000,0.00000571268000000000
101.00000000000000000000,0.00001039050000000000
101.00000000000000000000,0.00001566750000000000
101.00000000000000000000,0.00002471660000000000
101.00000000000000000000,0.00003431240000000000
101.00000000000000000000,0.00003645370000000000
101.00000000000000000000,0.00003086140000000000
101.00000000000000000000,0.00002895800000000000
101.00000000000000000000,0.00003897390000000000
102.00000000000000000000,0.00005709050000000000
102.00000000000000000000,0.00007535040000000000
102.00000000000000000000,0.00008788900000000000
102.00000000000000000000,0.00009204430000000000
102.00000000000000000000,0.00009231630000000000
102.00000000000000000000,0.00009231879999999999
102.00000000000000000000,0.00008721730000000000
102.00000000000000000000,0.00007520089999999999
102.00000000000000000000,0.00006223190000000000
102.00000000000000000000,0.00005567420000000000
102.00000000000000000000,0.00005750290000000000
102.00000000000000000000,0.00005984050000000000
102.00000000000000000000,0.00006075340000000000
102.00000000000000000000,0.00005760400000000000
102.00000000000000000000,0.00004860770000000000
102.00000000000000000000,0.00004224590000000000
102.00000000000000000000,0.00004134370000000000
102.00000000000000000000,0.00004163210000000000
102.00000000000000000000,0.00004061560000000000
102.00000000000000000000,0.00003779980000000000
103.00000000000000000000,0.00003344870000000000
103.00000000000000000000,0.00003037170000000000
103.00000000000000000000,0.00002888320000000000
103.00000000000000000000,0.00002852410000000000
103.00000000000000000000,0.00003055510000000000
103.00000000000000000000,0.00003395740000000000
103.00000000000000000000,0.00003568450000000000
103.00000000000000000000,0.00003453770000000000
103.00000000000000000000,0.00002806160000000000
103.00000000000000000000,0.00002042390000000000
103.00000000000000000000,0.00001754020000000000
103.00000000000000000000,0.00001897470000000000
103.00000000000000000000,0.00002263080000000000
103.00000000000000000000,0.00002282140000000000
103.00000000000000000000,0.00001542670000000000
103.00000000000000000000,0.00000500334000000000
103.00000000000000000000,-0.00000167736000000000
103.00000000000000000000,-0.00000362729000000000
103.00000000000000000000,-0.00000360044000000000
103.00000000000000000000,-0.00000336814000000000
104.00000000000000000000,-0.00000239828000000000
104.00000000000000000000,-0.00000047825500000000
104.00000000000000000000,0.00000301122000000000
104.00000000000000000000,0.00000741325000000000
104.00000000000000000000,0.00001216560000000000
104.00000000000000000000,0.00001663370000000000
104.00000000000000000000,0.00002173060000000000
104.00000000000000000000,0.00003036690000000000
104.00000000000000000000,0.00004647040000000000
104.00000000000000000000,0.00006662579999999999
104.00000000000000000000,0.00008391810000000000
104.00000000000000000000,0.00009697540000000000
104.00000000000000000000,0.00010547300000000000
104.00000000000000000000,0.00010910600000000000
104.00000000000000000000,0.00010746300000000000
104.00000000000000000000,0.00010176700000000000
104.00000000000000000000,0.00009539130000000000
104.00000000000000000000,0.00009063000000000000
104.00000000000000000000,0.00008629950000000000
104.00000000000000000000,0.00008032700000000001
105.00000000000000000000,0.00006960990000000000
105.00000000000000000000,0.00006030200000000000
105.00000000000000000000,0.00005307420000000000
105.00000000000000000000,0.00004369510000000000
105.00000000000000000000,0.00003892300000000000
105.00000000000000000000,0.00003758890000000000
105.00000000000000000000,0.00003682770000000000
105.00000000000000000000,0.00003681890000000000
105.00000000000000000000,0.00003425520000000000
105.00000000000000000000,0.00003176030000000000
105.00000000000000000000,0.00003368940000000000
105.00000000000000000000,0.00003486260000000000
105.00000000000000000000,0.00003110320000000000
105.00000000000000000000,0.00002402780000000000
105.00000000000000000000,0.00001598780000000000
105.00000000000000000000,0.00000965923000000000
105.00000000000000000000,0.00000806764000000000
105.00000000000000000000,0.00001042790000000000
105.00000000000000000000,0.00001121860000000000
105.00000000000000000000,0.00000689870000000000
106.00000000000000000000,0.00000028815000000000
106.00000000000000000000,-0.00000055561700000000
106.00000000000000000000,0.00000585062000000000
106.00000000000000000000,0.00001057780000000000
106.00000000000000000000,0.00000680151000000000
106.00000000000000000000,-0.00000056854200000000
106.00000000000000000000,-0.00001262330000000000
106.00000000000000000000,-0.00002278820000000000
106.00000000000000000000,-0.00002103990000000000
106.00000000000000000000,-0.00000696752000000000
106.00000000000000000000,0.00001081500000000000
106.00000000000000000000,0.00001755810000000000
106.00000000000000000000,0.00001526660000000000
106.00000000000000000000,0.00001486880000000000
106.00000000000000000000,0.00002791890000000000
106.00000000000000000000,0.00004917000000000000
106.00000000000000000000,0.00007014060000000000
106.00000000000000000000,0.00008554620000000000
106.00000000000000000000,0.00009655700000000000
106.00000000000000000000,0.00010735800000000000
107.00000000000000000000,0.00011867500000000000
107.00000000000000000000,0.00013140299999999999
107.00000000000000000000,0.00014271299999999999
107.00000000000000000000,0.00014823800000000000
107.00000000000000000000,0.00014399399999999999
107.00000000000000000000,0.00013314100000000000
107.00000000000000000000,0.00012025900000000000
107.00000000000000000000,0.00010405500000000001
107.00000000000000000000,0.00008601590000000000
107.00000000000000000000,0.00007507789999999999
107.00000000000000000000,0.00006901230000000000
107.00000000000000000000,0.00006164680000000000
107.00000000000000000000,0.00005395100000000000
107.00000000000000000000,0.00004937750000000000
107.00000000000000000000,0.00004690230000000000
107.00000000000000000000,0.00004912710000000000
107.00000000000000000000,0.00005028560000000000
107.00000000000000000000,0.00004638600000000000
107.00000000000000000000,0.00004320150000000000
107.00000000000000000000,0.00003878230000000000
108.00000000000000000000,0.00003255140000000000
108.00000000000000000000,0.00002732500000000000
108.00000000000000000000,0.00002400000000000000
108.00000000000000000000,0.00002388380000000000
108.00000000000000000000,0.00002655820000000000
108.00000000000000000000,0.00002808490000000000
108.00000000000000000000,0.00002708860000000000
108.00000000000000000000,0.00002477570000000000
108.00000000000000000000,0.00002162170000000000
108.00000000000000000000,0.00001763160000000000
108.00000000000000000000,0.00001517670000000000
108.00000000000000000000,0.00001572420000000000
108.00000000000000000000,0.00001572770000000000
108.00000000000000000000,0.00001271520000000000
108.00000000000000000000,0.00000992191000000000
108.00000000000000000000,0.00000904954000000000
108.00000000000000000000,0.00001086250000000000
108.00000000000000000000,0.00001402800000000000
108.00000000000000000000,0.00001814550000000000
108.00000000000000000000,0.00002276520000000000
109.00000000000000000000,0.00002560840000000000
109.00000000000000000000,0.00002408860000000000
109.00000000000000000000,0.00002106170000000000
109.00000000000000000000,0.00002279650000000000
109.00000000000000000000,0.00002658030000000000
109.00000000000000000000,0.00002942050000000000
109.00000000000000000000,0.00002984860000000000
109.00000000000000000000,0.00002725980000000000
109.00000000000000000000,0.00002684920000000000
109.00000000000000000000,0.00002700480000000000
109.00000000000000000000,0.00002533430000000000
109.00000000000000000000,0.00002344550000000000
109.00000000000000000000,0.00002124560000000000
109.00000000000000000000,0.00001736730000000000
109.00000000000000000000,0.00001312650000000000
109.00000000000000000000,0.00000771316000000000
109.00000000000000000000,0.00000095281100000000
109.00000000000000000000,-0.00000034561300000000
109.00000000000000000000,0.00000597490000000000
109.00000000000000000000,0.00001039910000000000
110.00000000000000000000,0.00000654834000000000
110.00000000000000000000,0.00000030721500000000
110.00000000000000000000,-0.00000044894800000000
110.00000000000000000000,0.00000775885000000000
110.00000000000000000000,0.00002110030000000000
110.00000000000000000000,0.00003942240000000000
110.00000000000000000000,0.00005736590000000000
110.00000000000000000000,0.00006759249999999999
110.00000000000000000000,0.00006863709999999999
110.00000000000000000000,0.00006683440000000001
110.00000000000000000000,0.00006814940000000000
110.00000000000000000000,0.00006914400000000000
110.00000000000000000000,0.00006953340000000000
110.00000000000000000000,0.00007109630000000001
110.00000000000000000000,0.00007228349999999999
110.00000000000000000000,0.00006981550000000000
110.00000000000000000000,0.00006750100000000000
110.00000000000000000000,0.00006985900000000000
110.00000000000000000000,0.00007727880000000000
110.00000000000000000000,0.00008211340000000001
111.00000000000000000000,0.00007919660000000001
111.00000000000000000000,0.00007425370000000000
111.00000000000000000000,0.00007131850000000001
111.00000000000000000000,0.00006800580000000000
111.00000000000000000000,0.00006232270000000000
111.00000000000000000000,0.00005580300000000000
111.00000000000000000000,0.00005020150000000000
111.00000000000000000000,0.00004748790000000000
111.00000000000000000000,0.00004857430000000000
111.00000000000000000000,0.00004999260000000000
111.00000000000000000000,0.00004738200000000000
111.00000000000000000000,0.00004073920000000000
111.00000000000000000000,0.00003279040000000000
111.00000000000000000000,0.00003026060000000000
111.00000000000000000000,0.00003241530000000000
111.00000000000000000000,0.00003436570000000000
111.00000000000000000000,0.00003506090000000000
111.00000000000000000000,0.00003458800000000000
111.00000000000000000000,0.00003211300000000000
111.00000000000000000000,0.00002919860000000000
112.00000000000000000000,0.00002879700000000000
112.00000000000000000000,0.00003046330000000000
112.00000000000000000000,0.00002857870000000000
112.00000000000000000000,0.00002240510000000000
112.00000000000000000000,0.00001865560000000000
112.00000000000000000000,0.00002208690000000000
112.00000000000000000000,0.00002864300000000000
112.00000000000000000000,0.00002859290000000000
112.00000000000000000000,0.00002136440000000000
112.00000000000000000000,0.00001441720000000000
112.00000000000000000000,0.00001293560000000000
112.00000000000000000000,0.00001574730000000000
112.00000000000000000000,0.00001927190000000000
112.00000000000000000000,0.00002200560000000000
112.00000000000000000000,0.00002696900000000000
112.00000000000000000000,0.00003171700000000000
112.00000000000000000000,0.00003381070000000000
112.00000000000000000000,0.00003661000000000000
112.00000000000000000000,0.00004220700000000000
112.00000000000000000000,0.00004762210000000000
113.00000000000000000000,0.00005142430000000000
113.00000000000000000000,0.00005384210000000000
113.00000000000000000000,0.00004668370000000000
113.00000000000000000000,0.00004024010000000000
113.00000000000000000000,0.00003990970000000000
113.00000000000000000000,0.00003057390000000000
113.00000000000000000000,0.00001570830000000000
113.00000000000000000000,0.00000282980000000000
113.00000000000000000000,-0.00000498619000000000
113.00000000000000000000,-0.00001123400000000000
113.00000000000000000000,-0.00002093100000000000
113.00000000000000000000,-0.00002984950000000000
113.00000000000000000000,-0.00001963560000000000
113.00000000000000000000,0.00001650910000000000
113.00000000000000000000,0.00006573430000000000
113.00000000000000000000,0.00011379500000000000
113.00000000000000000000,0.00014899999999999999
113.00000000000000000000,0.00016556000000000001
113.00000000000000000000,0.00016515300000000000
113.00000000000000000000,0.00015414399999999999
114.00000000000000000000,0.00013561300000000000
114.00000000000000000000,0.00011332800000000000
114.00000000000000000000,0.00008971250000000001
114.00000000000000000000,0.00006996090000000000
114.00000000000000000000,0.00006074040000000000
114.00000000000000000000,0.00005980420000000000
114.00000000000000000000,0.00005689360000000000
114.00000000000000000000,0.00005047840000000000
114.00000000000000000000,0.00004284840000000000
114.00000000000000000000,0.00003890450000000000
114.00000000000000000000,0.00003796480000000000
114.00000000000000000000,0.00003486510000000000
114.00000000000000000000,0.00003153840000000000
114.00000000000000000000,0.00002920170000000000
114.00000000000000000000,0.00002688720000000000
114.00000000000000000000,0.00002462040000000000
114.00000000000000000000,0.00002128120000000000
114.00000000000000000000,0.00001698030000000000
114.00000000000000000000,0.00001659060000000000
114.00000000000000000000,0.00001992330000000000
115.00000000000000000000,0.00002160570000000000
115.00000000000000000000,0.00001770650000000000
115.00000000000000000000,0.00001323880000000000
115.00000000000000000000,0.00001452950000000000
115.00000000000000000000,0.00001891450000000000
115.00000000000000000000,0.00002081260000000000
115.00000000000000000000,0.00002106330000000000
115.00000000000000000000,0.00002226020000000000
115.00000000000000000000,0.00002196500000000000
115.00000000000000000000,0.00001985110000000000
115.00000000000000000000,0.00002039340000000000
115.00000000000000000000,0.00002444310000000000
115.00000000000000000000,0.00002716540000000000
115.00000000000000000000,0.00002794900000000000
115.00000000000000000000,0.00002431420000000000
115.00000000000000000000,0.00001597690000000000
115.00000000000000000000,0.00000803754000000000
115.00000000000000000000,0.00000692432000000000
115.00000000000000000000,0.00000749980000000000
115.00000000000000000000,0.00000106904000000000
116.00000000000000000000,-0.00000147905000000000
116.00000000000000000000,0.00000850918000000000
116.00000000000000000000,0.00003064960000000000
116.00000000000000000000,0.00005627620000000000
116.00000000000000000000,0.00007790829999999999
116.00000000000000000000,0.00009482430000000001
116.00000000000000000000,0.00010616700000000000
116.00000000000000000000,0.00010624700000000000
116.00000000000000000000,0.00009776700000000000
116.00000000000000000000,0.00008392340000000000
116.00000000000000000000,0.00006724400000000000
116.00000000000000000000,0.00005463940000000000
116.00000000000000000000,0.00004906540000000000
116.00000000000000000000,0.00004796320000000000
116.00000000000000000000,0.00004607240000000000
116.00000000000000000000,0.00004156580000000000
116.00000000000000000000,0.00003628290000000000
116.00000000000000000000,0.00003239100000000000
116.00000000000000000000,0.00002748080000000000
116.00000000000000000000,0.00002290470000000000
117.00000000000000000000,0.00001958430000000000
117.00000000000000000000,0.00002072230000000000
117.00000000000000000000,0.00002559150000000000
117.00000000000000000000,0.00002815710000000000
117.00000000000000000000,0.00003000200000000000
117.00000000000000000000,0.00003379760000000000
117.00000000000000000000,0.00003408810000000000
117.00000000000000000000,0.00003192040000000000
117.00000000000000000000,0.00002978440000000000
117.00000000000000000000,0.00002885330000000000
117.00000000000000000000,0.00002853040000000000
117.00000000000000000000,0.00002906620000000000
117.00000000000000000000,0.00002855080000000000
117.00000000000000000000,0.00002704170000000000
117.00000000000000000000,0.00002751130000000000
117.00000000000000000000,0.00002756300000000000
117.00000000000000000000,0.00002516090000000000
117.00000000000000000000,0.00002101850000000000
117.00000000000000000000,0.00001697990000000000
117.00000000000000000000,0.00001399990000000000
118.00000000000000000000,0.00001285180000000000
118.00000000000000000000,0.00001090370000000000
118.00000000000000000000,0.00000847374000000000
118.00000000000000000000,0.00001005070000000000
118.00000000000000000000,0.00001752890000000000
118.00000000000000000000,0.00002798060000000000
118.00000000000000000000,0.00004033930000000000
118.00000000000000000000,0.00004939230000000000
118.00000000000000000000,0.00005542410000000000
118.00000000000000000000,0.00006283470000000000
118.00000000000000000000,0.00006739720000000001
118.00000000000000000000,0.00006676119999999999
118.00000000000000000000,0.00006570410000000000
118.00000000000000000000,0.00006860800000000000
118.00000000000000000000,0.00007344070000000000
118.00000000000000000000,0.00007479320000000000
118.00000000000000000000,0.00007307950000000000
118.00000000000000000000,0.00007236240000000000
118.00000000000000000000,0.00007258310000000000
118.00000000000000000000,0.00007059370000000000
119.00000000000000000000,0.00006723870000000000
119.00000000000000000000,0.00006196910000000000
119.00000000000000000000,0.00005616850000000000
119.00000000000000000000,0.00005081580000000000
119.00000000000000000000,0.00004519360000000000
119.00000000000000000000,0.00003868800000000000
119.00000000000000000000,0.00003130850000000000
119.00000000000000000000,0.00002739290000000000
119.00000000000000000000,0.00002963330000000000
119.00000000000000000000,0.00003351930000000000
119.00000000000000000000,0.00003347710000000000
119.00000000000000000000,0.00003206460000000000
119.00000000000000000000,0.00003462010000000000
119.00000000000000000000,0.00004031530000000000
119.00000000000000000000,0.00004411970000000000
119.00000000000000000000,0.00004539070000000000
119.00000000000000000000,0.00004521140000000000
119.00000000000000000000,0.00004337160000000000
119.00000000000000000000,0.00004183420000000000
119.00000000000000000000,0.00004076200000000000
120.00000000000000000000,0.00003807750000000000
120.00000000000000000000,0.00004030520000000000
120.00000000000000000000,0.00004112260000000000
120.00000000000000000000,0.00003748470000000000
120.00000000000000000000,0.00003512320000000000
120.00000000000000000000,0.00003175830000000000
120.00000000000000000000,0.00002693110000000000
120.00000000000000000000,0.00002653590000000000
120.00000000000000000000,0.00003270620000000000
120.00000000000000000000,0.00003933570000000000
120.00000000000000000000,0.00004207850000000000
120.00000000000000000000,0.00004408400000000000
120.00000000000000000000,0.00004758750000000000
120.00000000000000000000,0.00004860450000000000
120.00000000000000000000,0.00004568410000000000
120.00000000000000000000,0.00004155220000000000
120.00000000000000000000,0.00003978990000000000
120.00000000000000000000,0.00003933290000000000
120.00000000000000000000,0.00003796670000000000
120.00000000000000000000,0.00003514460000000000
121.00000000000000000000,0.00003548080000000000
121.00000000000000000000,0.00003751020000000000
121.00000000000000000000,0.00003524650000000000
121.00000000000000000000,0.00002473920000000000
121.00000000000000000000,0.00000984027000000000
121.00000000000000000000,0.00000180924000000000
121.00000000000000000000,-0.00000303598000000000
121.00000000000000000000,-0.00000461279000000000
121.00000000000000000000,0.00000109499000000000
121.00000000000000000000,0.00000499245000000000
121.00000000000000000000,0.00000836886000000000
121.00000000000000000000,0.00001886900000000000
121.00000000000000000000,0.00003887450000000000
121.00000000000000000000,0.00006223560000000000
121.00000000000000000000,0.00008328690000000000
121.00000000000000000000,0.00009778239999999999
121.00000000000000000000,0.00010165300000000000
121.00000000000000000000,0.00009549790000000001
121.00000000000000000000,0.00008403090000000000
121.00000000000000000000,0.00007187410000000000
122.00000000000000000000,0.00006087450000000000
122.00000000000000000000,0.00005335040000000000
122.00000000000000000000,0.00004963090000000000
122.00000000000000000000,0.00004578240000000000
122.00000000000000000000,0.00003856140000000000
122.00000000000000000000,0.00002877920000000000
122.00000000000000000000,0.00002240370000000000
122.00000000000000000000,0.00002322130000000000
122.00000000000000000000,0.00002539430000000000
122.00000000000000000000,0.00002546450000000000
122.00000000000000000000,0.00002023320000000000
122.00000000000000000000,0.00000366590000000000
122.00000000000000000000,-0.00002235660000000000
122.00000000000000000000,-0.00004429140000000000
122.00000000000000000000,-0.00005797920000000000
122.00000000000000000000,-0.00006757600000000000
122.00000000000000000000,-0.00007797760000000000
122.00000000000000000000,-0.00008254210000000000
122.00000000000000000000,-0.00006909580000000000
122.00000000000000000000,-0.00003854220000000000
123.00000000000000000000,0.00000101294000000000
123.00000000000000000000,0.00004147310000000000
123.00000000000000000000,0.00007683090000000000
123.00000000000000000000,0.00010634200000000001
123.00000000000000000000,0.00013176099999999999
123.00000000000000000000,0.00015032899999999999
123.00000000000000000000,0.00015709300000000000
123.00000000000000000000,0.00014947900000000000
123.00000000000000000000,0.00013202200000000000
123.00000000000000000000,0.00011636799999999999
123.00000000000000000000,0.00011028100000000000
123.00000000000000000000,0.00010704500000000000
123.00000000000000000000,0.00010181600000000000
123.00000000000000000000,0.00009687370000000000
123.00000000000000000000,0.00008928709999999999
123.00000000000000000000,0.00007327060000000000
123.00000000000000000000,0.00005369750000000000
123.00000000000000000000,0.00003886370000000000
123.00000000000000000000,0.00002493380000000000
123.00000000000000000000,0.00000724220000000000
124.00000000000000000000,-0.00000751525000000000
124.00000000000000000000,-0.00001357520000000000
124.00000000000000000000,-0.00000482309000000000
124.00000000000000000000,0.00002266270000000000
124.00000000000000000000,0.00006333840000000000
124.00000000000000000000,0.00010670800000000000
124.00000000000000000000,0.00013904400000000001
124.00000000000000000000,0.00015040299999999999
124.00000000000000000000,0.00014375400000000001
124.00000000000000000000,0.00012706699999999999
124.00000000000000000000,0.00010522100000000000
124.00000000000000000000,0.00008275940000000000
124.00000000000000000000,0.00006336360000000000
124.00000000000000000000,0.00004763710000000000
124.00000000000000000000,0.00003674900000000000
124.00000000000000000000,0.00003284690000000000
124.00000000000000000000,0.00003068940000000000
124.00000000000000000000,0.00002524430000000000
124.00000000000000000000,0.00001849700000000000
124.00000000000000000000,0.00001445850000000000
125.00000000000000000000,0.00001346320000000000
125.00000000000000000000,0.00001129500000000000
125.00000000000000000000,0.00000562784000000000
125.00000000000000000000,0.00000008129650000000
125.00000000000000000000,-0.00000009808630000000
125.00000000000000000000,0.00000214779000000000
125.00000000000000000000,-0.00000210973000000000
125.00000000000000000000,-0.00000693837000000000
125.00000000000000000000,-0.00000624062000000000
125.00000000000000000000,-0.00000373431000000000
125.00000000000000000000,-0.00000199556000000000
125.00000000000000000000,-0.00000351174000000000
125.00000000000000000000,-0.00000248768000000000
125.00000000000000000000,0.00000524637000000000
125.00000000000000000000,0.00001533360000000000
125.00000000000000000000,0.00002305560000000000
125.00000000000000000000,0.00002654310000000000
125.00000000000000000000,0.00002804040000000000
125.00000000000000000000,0.00002891340000000000
125.00000000000000000000,0.00002615160000000000
126.00000000000000000000,0.00001863850000000000
126.00000000000000000000,0.00001296520000000000
126.00000000000000000000,0.00001231630000000000
126.00000000000000000000,0.00001387280000000000
126.00000000000000000000,0.00001494510000000000
126.00000000000000000000,0.00001499220000000000
126.00000000000000000000,0.00001615430000000000
126.00000000000000000000,0.00001900830000000000
126.00000000000000000000,0.00001982040000000000
126.00000000000000000000,0.00001854860000000000
126.00000000000000000000,0.00001819740000000000
126.00000000000000000000,0.00002231870000000000
126.00000000000000000000,0.00003194920000000000
126.00000000000000000000,0.00004365080000000000
126.00000000000000000000,0.00004911180000000000
126.00000000000000000000,0.00005077580000000000
126.00000000000000000000,0.00005675740000000000
126.00000000000000000000,0.00006092410000000000
126.00000000000000000000,0.00006426709999999999
126.00000000000000000000,0.00006597530000000000
127.00000000000000000000,0.00006396739999999999
127.00000000000000000000,0.00006081580000000000
127.00000000000000000000,0.00006032030000000000
127.00000000000000000000,0.00006205240000000000
127.00000000000000000000,0.00006336380000000000
127.00000000000000000000,0.00006140210000000000
127.00000000000000000000,0.00005806330000000000
127.00000000000000000000,0.00005718840000000000
127.00000000000000000000,0.00005593760000000000
127.00000000000000000000,0.00005091400000000000
127.00000000000000000000,0.00004562160000000000
127.00000000000000000000,0.00004374900000000000
127.00000000000000000000,0.00003931490000000000
127.00000000000000000000,0.00003295640000000000
127.00000000000000000000,0.00002801180000000000
127.00000000000000000000,0.00002500160000000000
127.00000000000000000000,0.00002496770000000000
127.00000000000000000000,0.00002617660000000000
127.00000000000000000000,0.00003007530000000000
127.00000000000000000000,0.00003509130000000000
128.00000000000000000000,0.00003672390000000000
128.00000000000000000000,0.00003673720000000000
128.00000000000000000000,0.00003693880000000000
