Frame,EMG1
1.00000000000000000000,-0.00003145690000000000
1.00000000000000000000,-0.00002964230000000000
1.00000000000000000000,-0.00002973880000000000
1.00000000000000000000,-0.00002324190000000000
1.00000000000000000000,-0.00001740770000000000
1.00000000000000000000,-0.00001703390000000000
1.00000000000000000000,-0.00001933130000000000
1.00000000000000000000,-0.00002083280000000000
1.00000000000000000000,-0.00001993100000000000
1.00000000000000000000,-0.00002792950000000000
1.00000000000000000000,-0.00004354200000000000
1.00000000000000000000,-0.00004231480000000000
1.00000000000000000000,-0.00002446040000000000
1.00000000000000000000,-0.00000976468000000000
1.00000000000000000000,0.00000429204000000000
1.00000000000000000000,0.00002730690000000000
1.00000000000000000000,0.00005508190000000000
1.00000000000000000000,0.00006670210000000001
1.00000000000000000000,0.00005139000000000000
1.00000000000000000000,0.00002772470000000000
2.00000000000000000000,0.00002099750000000000
2.00000000000000000000,0.00003552230000000000
2.00000000000000000000,0.00006309590000000000
2.00000000000000000000,0.00009400320000000000
2.00000000000000000000,0.00012358800000000000
2.00000000000000000000,0.00015535899999999999
2.00000000000000000000,0.00018830900000000000
2.00000000000000000000,0.00021068600000000000
2.00000000000000000000,0.00021378200000000001
2.00000000000000000000,0.00019671800000000000
2.00000000000000000000,0.00016536400000000001
2.00000000000000000000,0.00013437700000000000
2.00000000000000000000,0.00010934500000000000
2.00000000000000000000,0.00009027550000000001
2.00000000000000000000,0.00007564830000000000
2.00000000000000000000,0.00005924960000000000
2.00000000000000000000,0.00003721920000000000
2.00000000000000000000,0.00000814520000000000
2.00000000000000000000,-0.00002001050000000000
2.00000000000000000000,-0.00003371340000000000
3.00000000000000000000,-0.00003126720000000000
3.00000000000000000000,-0.00002205140000000000
3.00000000000000000000,-0.00001417510000000000
3.00000000000000000000,-0.00000750805000000000
3.00000000000000000000,0.00000286836000000000
3.00000000000000000000,0.00001578970000000000
3.00000000000000000000,0.00002319560000000000
3.00000000000000000000,0.00002249370000000000
3.00000000000000000000,0.00001896540000000000
3.00000000000000000000,0.00001531380000000000
3.00000000000000000000,0.00001204710000000000
3.00000000000000000000,0.00000958688000000000
3.00000000000000000000,0.00000740457000000000
3.00000000000000000000,0.00000808240000000000
3.00000000000000000000,0.00001087950000000000
3.00000000000000000000,0.00001500650000000000
3.00000000000000000000,0.00002083350000000000
3.00000000000000000000,0.00002542970000000000
3.00000000000000000000,0.00001427960000000000
3.00000000000000000000,-0.00000535406000000000
4.00000000000000000000,-0.00001021820000000000
4.00000000000000000000,-0.00000607906000000000
4.00000000000000000000,0.00000390526000000000
4.00000000000000000000,0.00002272390000000000
4.00000000000000000000,0.00004936440000000000
4.00000000000000000000,0.00007177170000000000
4.00000000000000000000,0.00007573280000000000
4.00000000000000000000,0.00006481210000000000
4.00000000000000000000,0.00005691000000000000
4.00000000000000000000,0.00006049780000000000
4.00000000000000000000,0.00006848650000000000
4.00000000000000000000,0.00007581550000000000
4.00000000000000000000,0.00008767710000000000
4.00000000000000000000,0.00010597900000000000
4.00000000000000000000,0.00012314199999999999
4.00000000000000000000,0.00013287200000000000
4.00000000000000000000,0.00013132899999999999
4.00000000000000000000,0.00011960800000000000
4.00000000000000000000,0.00010205900000000001
4.00000000000000000000,0.00008062780000000000
5.00000000000000000000,0.00005260810000000000
5.00000000000000000000,0.00001762360000000000
5.00000000000000000000,-0.00001035090000000000
5.00000000000000000000,-0.00001710650000000000
5.00000000000000000000,-0.00001088520000000000
5.00000000000000000000,-0.00000634751000000000
5.00000000000000000000,-0.00000472350000000000
5.00000000000000000000,-0.00000125450000000000
5.00000000000000000000,-0.00000069909700000000
5.00000000000000000000,-0.00000178537000000000
5.00000000000000000000,-0.00000232977000000000
5.00000000000000000000,0.00000178133000000000
5.00000000000000000000,0.00000820195000000000
5.00000000000000000000,0.00001238620000000000
5.00000000000000000000,0.00001582860000000000
5.00000000000000000000,0.00002023720000000000
5.00000000000000000000,0.00002327860000000000
5.00000000000000000000,0.00002382150000000000
5.00000000000000000000,0.00002457190000000000
5.00000000000000000000,0.00002519480000000000
6.00000000000000000000,0.00002534500000000000
6.00000000000000000000,0.00002502000000000000
6.00000000000000000000,0.00002689400000000000
6.00000000000000000000,0.00003137650000000000
6.00000000000000000000,0.00003688280000000000
6.00000000000000000000,0.00003500860000000000
6.00000000000000000000,0.00001749100000000000
6.00000000000000000000,-0.00000984510000000000
6.00000000000000000000,-0.00002634750000000000
6.00000000000000000000,-0.00002890920000000000
6.00000000000000000000,-0.00003497700000000000
6.00000000000000000000,-0.00006150980000000000
6.00000000000000000000,-0.00008414429999999999
6.00000000000000000000,-0.00008354970000000000
6.00000000000000000000,-0.00007424349999999999
6.00000000000000000000,-0.00004350730000000000
6.00000000000000000000,0.00001862850000000000
6.00000000000000000000,0.00009308209999999999
6.00000000000000000000,0.00015322999999999999
6.00000000000000000000,0.00018639300000000000
7.00000000000000000000,0.00019752900000000000
7.00000000000000000000,0.00019915900000000000
7.00000000000000000000,0.00019522499999999999
7.00000000000000000000,0.00017335699999999999
7.00000000000000000000,0.00013377800000000001
7.00000000000000000000,0.00010042000000000000
7.00000000000000000000,0.00008798140000000000
7.00000000000000000000,0.00009120630000000000
7.00000000000000000000,0.00010377600000000000
7.00000000000000000000,0.00011872100000000000
7.00000000000000000000,0.00012445400000000000
7.00000000000000000000,0.00011993999999999999
7.00000000000000000000,0.00010957600000000000
7.00000000000000000000,0.00009208190000000000
7.00000000000000000000,0.00006386940000000000
7.00000000000000000000,0.00002285520000000000
7.00000000000000000000,-0.00001786500000000000
7.00000000000000000000,-0.00003979960000000000
7.00000000000000000000,-0.00003869090000000000
7.00000000000000000000,-0.00002461330000000000
8.00000000000000000000,-0.00000673870000000000
8.00000000000000000000,0.00001281910000000000
8.00000000000000000000,0.00002675450000000000
8.00000000000000000000,0.00003372690000000000
8.00000000000000000000,0.00003417560000000000
8.00000000000000000000,0.00001966500000000000
8.00000000000000000000,0.00000309858000000000
8.00000000000000000000,0.00000599953000000000
8.00000000000000000000,0.00002734540000000000
8.00000000000000000000,0.00005681820000000000
8.00000000000000000000,0.00008723819999999999
8.00000000000000000000,0.00011103700000000000
8.00000000000000000000,0.00011892200000000000
8.00000000000000000000,0.00011142000000000000
8.00000000000000000000,0.00009435560000000000
8.00000000000000000000,0.00007442990000000000
8.00000000000000000000,0.00005300200000000000
8.00000000000000000000,0.00002627650000000000
8.00000000000000000000,-0.00000837767000000000
8.00000000000000000000,-0.00004111760000000000
9.00000000000000000000,-0.00005231370000000000
9.00000000000000000000,-0.00004165150000000000
9.00000000000000000000,-0.00003035170000000000
9.00000000000000000000,-0.00002925670000000000
9.00000000000000000000,-0.00002175800000000000
9.00000000000000000000,0.00000070993000000000
9.00000000000000000000,0.00002532440000000000
9.00000000000000000000,0.00004506090000000000
9.00000000000000000000,0.00006444600000000000
9.00000000000000000000,0.00008430940000000000
9.00000000000000000000,0.00009479630000000000
9.00000000000000000000,0.00008929820000000000
9.00000000000000000000,0.00007094380000000000
9.00000000000000000000,0.00005088560000000000
9.00000000000000000000,0.00003556110000000000
9.00000000000000000000,0.00001877160000000000
9.00000000000000000000,0.00000187748000000000
9.00000000000000000000,-0.00000489033000000000
9.00000000000000000000,0.00000216545000000000
9.00000000000000000000,0.00001791120000000000
10.00000000000000000000,0.00003498460000000000
10.00000000000000000000,0.00004907830000000000
10.00000000000000000000,0.00005398710000000000
10.00000000000000000000,0.00003416980000000000
10.00000000000000000000,-0.00001293100000000000
10.00000000000000000000,-0.00006143250000000000
10.00000000000000000000,-0.00008251040000000000
10.00000000000000000000,-0.00006620100000000000
10.00000000000000000000,-0.00001779120000000000
10.00000000000000000000,0.00004686860000000000
10.00000000000000000000,0.00011074800000000000
10.00000000000000000000,0.00016052899999999999
10.00000000000000000000,0.00018875500000000000
10.00000000000000000000,0.00018721699999999999
10.00000000000000000000,0.00016538699999999999
10.00000000000000000000,0.00013663500000000000
10.00000000000000000000,0.00010793600000000000
10.00000000000000000000,0.00008858209999999999
10.00000000000000000000,0.00006967970000000000
10.00000000000000000000,0.00004851730000000000
11.00000000000000000000,0.00002880220000000000
11.00000000000000000000,0.00001573730000000000
11.00000000000000000000,0.00000908386000000000
11.00000000000000000000,0.00001016990000000000
11.00000000000000000000,0.00001658600000000000
11.00000000000000000000,0.00002091100000000000
11.00000000000000000000,0.00001603830000000000
11.00000000000000000000,-0.00000102504000000000
11.00000000000000000000,-0.00002266020000000000
11.00000000000000000000,-0.00003935580000000000
11.00000000000000000000,-0.00005091900000000000
11.00000000000000000000,-0.00005767570000000000
11.00000000000000000000,-0.00004616260000000000
11.00000000000000000000,-0.00001240780000000000
11.00000000000000000000,0.00002911420000000000
11.00000000000000000000,0.00006403220000000000
11.00000000000000000000,0.00009210500000000000
11.00000000000000000000,0.00011048500000000000
11.00000000000000000000,0.00011874600000000000
11.00000000000000000000,0.00011755600000000000
12.00000000000000000000,0.00010991300000000000
12.00000000000000000000,0.00009555719999999999
12.00000000000000000000,0.00006512009999999999
12.00000000000000000000,0.00002473000000000000
12.00000000000000000000,-0.00000433069000000000
12.00000000000000000000,-0.00001275990000000000
12.00000000000000000000,-0.00001068720000000000
12.00000000000000000000,-0.00001759770000000000
12.00000000000000000000,-0.00003848810000000000
12.00000000000000000000,-0.00005033150000000000
12.00000000000000000000,-0.00003936190000000000
12.00000000000000000000,-0.00002616150000000000
12.00000000000000000000,-0.00002497740000000000
12.00000000000000000000,-0.00002102460000000000
12.00000000000000000000,-0.00000214002000000000
12.00000000000000000000,0.00002181070000000000
12.00000000000000000000,0.00004140070000000000
12.00000000000000000000,0.00006279140000000000
12.00000000000000000000,0.00009003370000000001
12.00000000000000000000,0.00011598800000000000
13.00000000000000000000,0.00012459500000000000
13.00000000000000000000,0.00011022500000000000
13.00000000000000000000,0.00008394999999999999
13.00000000000000000000,0.00005117450000000000
13.00000000000000000000,0.00002616850000000000
13.00000000000000000000,0.00002719780000000000
13.00000000000000000000,0.00004632640000000000
13.00000000000000000000,0.00007278620000000000
13.00000000000000000000,0.00010338400000000000
13.00000000000000000000,0.00012950700000000001
13.00000000000000000000,0.00014083699999999999
13.00000000000000000000,0.00013529500000000001
13.00000000000000000000,0.00012128900000000000
13.00000000000000000000,0.00011146200000000000
13.00000000000000000000,0.00010507100000000000
13.00000000000000000000,0.00009540380000000000
13.00000000000000000000,0.00008011100000000001
13.00000000000000000000,0.00005801430000000000
13.00000000000000000000,0.00003000830000000000
13.00000000000000000000,0.00001016900000000000
14.00000000000000000000,0.00001268810000000000
14.00000000000000000000,0.00002957350000000000
14.00000000000000000000,0.00004166960000000000
14.00000000000000000000,0.00004255430000000000
14.00000000000000000000,0.00003945760000000000
14.00000000000000000000,0.00003879810000000000
14.00000000000000000000,0.00004222650000000000
14.00000000000000000000,0.00004865740000000000
14.00000000000000000000,0.00005745390000000000
14.00000000000000000000,0.00006341750000000000
14.00000000000000000000,0.00005485850000000000
14.00000000000000000000,0.00003425060000000000
14.00000000000000000000,0.00002179570000000000
14.00000000000000000000,0.00002254640000000000
14.00000000000000000000,0.00001652460000000000
14.00000000000000000000,-0.00000333270000000000
14.00000000000000000000,-0.00002584220000000000
14.00000000000000000000,-0.00004517750000000000
14.00000000000000000000,-0.00005529300000000000
14.00000000000000000000,-0.00005537790000000000
15.00000000000000000000,-0.00003932460000000000
15.00000000000000000000,-0.00001043080000000000
15.00000000000000000000,0.00002304310000000000
15.00000000000000000000,0.00005112580000000000
15.00000000000000000000,0.00006568710000000000
15.00000000000000000000,0.00006478820000000000
15.00000000000000000000,0.00004919720000000000
15.00000000000000000000,0.00002693700000000000
15.00000000000000000000,0.00000500234000000000
15.00000000000000000000,-0.00001534650000000000
15.00000000000000000000,-0.00003149750000000000
15.00000000000000000000,-0.00002925480000000000
15.00000000000000000000,-0.00000225396000000000
15.00000000000000000000,0.00003904960000000000
15.00000000000000000000,0.00007551000000000000
15.00000000000000000000,0.00009627780000000000
15.00000000000000000000,0.00009591909999999999
15.00000000000000000000,0.00007798599999999999
15.00000000000000000000,0.00006073010000000000
15.00000000000000000000,0.00005785720000000000
16.00000000000000000000,0.00005581050000000000
16.00000000000000000000,0.00004803220000000000
16.00000000000000000000,0.00004591500000000000
16.00000000000000000000,0.00004406700000000000
16.00000000000000000000,0.00003727790000000000
16.00000000000000000000,0.00003173480000000000
16.00000000000000000000,0.00002429230000000000
16.00000000000000000000,0.00001184320000000000
16.00000000000000000000,0.00000310657000000000
16.00000000000000000000,0.00000732335000000000
16.00000000000000000000,0.00002365070000000000
16.00000000000000000000,0.00004526650000000000
16.00000000000000000000,0.00006624460000000000
16.00000000000000000000,0.00008581130000000000
16.00000000000000000000,0.00010324599999999999
16.00000000000000000000,0.00011335700000000001
16.00000000000000000000,0.00011147200000000001
16.00000000000000000000,0.00010109600000000000
16.00000000000000000000,0.00008886029999999999
16.00000000000000000000,0.00007264260000000000
17.00000000000000000000,0.00005097700000000000
17.00000000000000000000,0.00003009820000000000
17.00000000000000000000,0.00001721450000000000
17.00000000000000000000,0.00001158250000000000
17.00000000000000000000,0.00000955659000000000
17.00000000000000000000,0.00000588757000000000
17.00000000000000000000,0.00000310692000000000
17.00000000000000000000,0.00000891327000000000
17.00000000000000000000,0.00000691833000000000
17.00000000000000000000,-0.00000974469000000000
17.00000000000000000000,-0.00002006340000000000
17.00000000000000000000,-0.00001276520000000000
17.00000000000000000000,0.00000604099000000000
17.00000000000000000000,0.00002114930000000000
17.00000000000000000000,0.00003332590000000000
17.00000000000000000000,0.00004342250000000000
17.00000000000000000000,0.00003879830000000000
17.00000000000000000000,0.00002084580000000000
17.00000000000000000000,0.00001058190000000000
17.00000000000000000000,0.00001985730000000000
18.00000000000000000000,0.00004441200000000000
18.00000000000000000000,0.00007420700000000000
18.00000000000000000000,0.00010339900000000000
18.00000000000000000000,0.00012875600000000000
18.00000000000000000000,0.00014688500000000000
18.00000000000000000000,0.00015197499999999999
18.00000000000000000000,0.00013002200000000001
18.00000000000000000000,0.00007657960000000000
18.00000000000000000000,0.00001392230000000000
18.00000000000000000000,-0.00002607840000000000
18.00000000000000000000,-0.00003494640000000000
18.00000000000000000000,-0.00002514040000000000
18.00000000000000000000,-0.00000893498000000000
18.00000000000000000000,0.00001497980000000000
18.00000000000000000000,0.00004246350000000000
18.00000000000000000000,0.00005899990000000000
18.00000000000000000000,0.00006379290000000000
18.00000000000000000000,0.00005735200000000000
18.00000000000000000000,0.00005414930000000000
18.00000000000000000000,0.00006331630000000000
19.00000000000000000000,0.00006846060000000001
19.00000000000000000000,0.00007251050000000000
19.00000000000000000000,0.00008144800000000000
19.00000000000000000000,0.00009772790000000000
19.00000000000000000000,0.00011045100000000000
19.00000000000000000000,0.00011644100000000001
19.00000000000000000000,0.00012243500000000000
19.00000000000000000000,0.00012714399999999999
19.00000000000000000000,0.00012348900000000001
19.00000000000000000000,0.00010788400000000000
19.00000000000000000000,0.00008505050000000000
19.00000000000000000000,0.00005935620000000000
19.00000000000000000000,0.00003686760000000000
19.00000000000000000000,0.00001809390000000000
19.00000000000000000000,-0.00000032093500000000
19.00000000000000000000,-0.00002734010000000000
19.00000000000000000000,-0.00006317929999999999
19.00000000000000000000,-0.00008604590000000000
19.00000000000000000000,-0.00007777650000000000
19.00000000000000000000,-0.00004772120000000000
20.00000000000000000000,-0.00001087970000000000
20.00000000000000000000,0.00002334850000000000
20.00000000000000000000,0.00005172100000000000
20.00000000000000000000,0.00007019720000000001
20.00000000000000000000,0.00007555410000000000
20.00000000000000000000,0.00006766630000000001
20.00000000000000000000,0.00005449320000000000
20.00000000000000000000,0.00004211440000000000
20.00000000000000000000,0.00003476520000000000
20.00000000000000000000,0.00002941110000000000
20.00000000000000000000,0.00002134410000000000
20.00000000000000000000,0.00001604040000000000
20.00000000000000000000,0.00001572690000000000
20.00000000000000000000,0.00001291020000000000
20.00000000000000000000,0.00000502852000000000
20.00000000000000000000,0.00000012176400000000
20.00000000000000000000,0.00000269431000000000
20.00000000000000000000,0.00001196660000000000
20.00000000000000000000,0.00002251990000000000
20.00000000000000000000,0.00002926210000000000
21.00000000000000000000,0.00003257420000000000
21.00000000000000000000,0.00003876090000000000
21.00000000000000000000,0.00004431360000000000
21.00000000000000000000,0.00004508080000000000
21.00000000000000000000,0.00004132310000000000
21.00000000000000000000,0.00003372610000000000
21.00000000000000000000,0.00002057340000000000
21.00000000000000000000,0.00000109430000000000
21.00000000000000000000,-0.00002402620000000000
21.00000000000000000000,-0.00004337740000000000
21.00000000000000000000,-0.00004973270000000000
21.00000000000000000000,-0.00004843270000000000
21.00000000000000000000,-0.00003702860000000000
21.00000000000000000000,-0.00000404156000000000
21.00000000000000000000,0.00004715900000000000
21.00000000000000000000,0.00009535720000000000
21.00000000000000000000,0.00012695499999999999
21.00000000000000000000,0.00013661200000000001
21.00000000000000000000,0.00013506400000000001
21.00000000000000000000,0.00012929599999999999
22.00000000000000000000,0.00011778400000000000
22.00000000000000000000,0.00009683130000000000
22.00000000000000000000,0.00006975319999999999
22.00000000000000000000,0.00004642240000000000
22.00000000000000000000,0.00003285360000000000
22.00000000000000000000,0.00002626970000000000
22.00000000000000000000,0.00002334070000000000
22.00000000000000000000,0.00002343240000000000
22.00000000000000000000,0.00002293840000000000
22.00000000000000000000,0.00002365530000000000
22.00000000000000000000,0.00002400610000000000
22.00000000000000000000,0.00002589840000000000
22.00000000000000000000,0.00003167370000000000
22.00000000000000000000,0.00004000220000000000
22.00000000000000000000,0.00004591600000000000
22.00000000000000000000,0.00004615940000000000
22.00000000000000000000,0.00003972290000000000
22.00000000000000000000,0.00002051430000000000
22.00000000000000000000,-0.00001774460000000000
22.00000000000000000000,-0.00006878410000000000
23.00000000000000000000,-0.00011344399999999999
23.00000000000000000000,-0.00014678799999999999
23.00000000000000000000,-0.00016151900000000000
23.00000000000000000000,-0.00013906400000000000
23.00000000000000000000,-0.00007776780000000000
23.00000000000000000000,0.00001270510000000000
23.00000000000000000000,0.00011503700000000000
23.00000000000000000000,0.00020435599999999999
23.00000000000000000000,0.00025423600000000002
23.00000000000000000000,0.00026057199999999998
23.00000000000000000000,0.00023749599999999999
23.00000000000000000000,0.00019787200000000001
23.00000000000000000000,0.00015184100000000000
23.00000000000000000000,0.00010423800000000000
23.00000000000000000000,0.00005470150000000000
23.00000000000000000000,0.00001120560000000000
23.00000000000000000000,-0.00000504598000000000
23.00000000000000000000,0.00000966236000000000
23.00000000000000000000,0.00002959430000000000
23.00000000000000000000,0.00003128860000000000
24.00000000000000000000,0.00000282098000000000
24.00000000000000000000,-0.00003654580000000000
24.00000000000000000000,-0.00004774930000000000
24.00000000000000000000,-0.00002208050000000000
24.00000000000000000000,0.00002915720000000000
24.00000000000000000000,0.00008632900000000001
24.00000000000000000000,0.00013912300000000000
24.00000000000000000000,0.00018481400000000000
24.00000000000000000000,0.00021921700000000001
24.00000000000000000000,0.00023401699999999999
24.00000000000000000000,0.00022536700000000000
24.00000000000000000000,0.00019261400000000000
24.00000000000000000000,0.00013303800000000001
24.00000000000000000000,0.00005671330000000000
24.00000000000000000000,-0.00000699031000000000
24.00000000000000000000,-0.00003740890000000000
24.00000000000000000000,-0.00003656140000000000
24.00000000000000000000,-0.00001751570000000000
24.00000000000000000000,0.00000671420000000000
24.00000000000000000000,0.00002868980000000000
25.00000000000000000000,0.00004643850000000000
25.00000000000000000000,0.00005985550000000000
25.00000000000000000000,0.00006194639999999999
25.00000000000000000000,0.00005601270000000000
25.00000000000000000000,0.00005191070000000000
25.00000000000000000000,0.00004783890000000000
25.00000000000000000000,0.00004157060000000000
25.00000000000000000000,0.00003852900000000000
25.00000000000000000000,0.00003889300000000000
25.00000000000000000000,0.00003661440000000000
25.00000000000000000000,0.00002553460000000000
25.00000000000000000000,0.00000800278000000000
25.00000000000000000000,-0.00001257840000000000
25.00000000000000000000,-0.00003212270000000000
25.00000000000000000000,-0.00004372270000000000
25.00000000000000000000,-0.00004470380000000000
25.00000000000000000000,-0.00003989470000000000
25.00000000000000000000,-0.00003324580000000000
25.00000000000000000000,-0.00002649050000000000
25.00000000000000000000,-0.00001982080000000000
26.00000000000000000000,-0.00001049780000000000
26.00000000000000000000,0.00000029993900000000
26.00000000000000000000,0.00000904087000000000
26.00000000000000000000,0.00001388920000000000
26.00000000000000000000,0.00001569100000000000
26.00000000000000000000,0.00001605620000000000
26.00000000000000000000,0.00001452590000000000
26.00000000000000000000,0.00000719925000000000
26.00000000000000000000,-0.00000891841000000000
26.00000000000000000000,-0.00002241760000000000
26.00000000000000000000,-0.00001893150000000000
26.00000000000000000000,-0.00000255756000000000
26.00000000000000000000,0.00001823680000000000
26.00000000000000000000,0.00003290030000000000
26.00000000000000000000,0.00003726450000000000
26.00000000000000000000,0.00004131260000000000
26.00000000000000000000,0.00004906540000000000
26.00000000000000000000,0.00005260240000000000
26.00000000000000000000,0.00005116450000000000
26.00000000000000000000,0.00004745320000000000
27.00000000000000000000,0.00003701400000000000
27.00000000000000000000,0.00002069840000000000
27.00000000000000000000,0.00000257368000000000
27.00000000000000000000,-0.00000589214000000000
27.00000000000000000000,0.00000934248000000000
27.00000000000000000000,0.00004502430000000000
27.00000000000000000000,0.00009097730000000000
27.00000000000000000000,0.00013379900000000001
27.00000000000000000000,0.00015578700000000000
27.00000000000000000000,0.00014765700000000001
27.00000000000000000000,0.00011929500000000000
27.00000000000000000000,0.00009238160000000000
27.00000000000000000000,0.00007693220000000000
27.00000000000000000000,0.00006918129999999999
27.00000000000000000000,0.00006441130000000000
27.00000000000000000000,0.00006269930000000000
27.00000000000000000000,0.00006448580000000001
27.00000000000000000000,0.00006531320000000000
27.00000000000000000000,0.00005713900000000000
27.00000000000000000000,0.00004090390000000000
28.00000000000000000000,0.00001468860000000000
28.00000000000000000000,-0.00001504570000000000
28.00000000000000000000,-0.00002152940000000000
28.00000000000000000000,-0.00000207264000000000
28.00000000000000000000,0.00002656330000000000
28.00000000000000000000,0.00005391690000000000
28.00000000000000000000,0.00007747440000000000
28.00000000000000000000,0.00009486200000000000
28.00000000000000000000,0.00010479200000000000
28.00000000000000000000,0.00011042100000000001
28.00000000000000000000,0.00011868500000000001
28.00000000000000000000,0.00012849899999999999
28.00000000000000000000,0.00012635200000000001
28.00000000000000000000,0.00010999600000000000
28.00000000000000000000,0.00008757480000000000
28.00000000000000000000,0.00006359460000000000
28.00000000000000000000,0.00003929330000000000
28.00000000000000000000,0.00001632600000000000
28.00000000000000000000,-0.00000361722000000000
28.00000000000000000000,-0.00001702020000000000
29.00000000000000000000,-0.00002097830000000000
29.00000000000000000000,-0.00001799720000000000
29.00000000000000000000,-0.00001250910000000000
29.00000000000000000000,-0.00000685978000000000
29.00000000000000000000,-0.00000220312000000000
29.00000000000000000000,0.00000178912000000000
29.00000000000000000000,0.00000677729000000000
29.00000000000000000000,0.00000945387000000000
29.00000000000000000000,0.00000392145000000000
29.00000000000000000000,-0.00000848991000000000
29.00000000000000000000,-0.00001842830000000000
29.00000000000000000000,-0.00003114300000000000
29.00000000000000000000,-0.00006713930000000000
29.00000000000000000000,-0.00010818500000000000
29.00000000000000000000,-0.00012703200000000001
29.00000000000000000000,-0.00012157900000000000
29.00000000000000000000,-0.00008521330000000001
29.00000000000000000000,-0.00002110050000000000
29.00000000000000000000,0.00004813600000000000
29.00000000000000000000,0.00010804300000000000
30.00000000000000000000,0.00015471199999999999
30.00000000000000000000,0.00017893499999999999
30.00000000000000000000,0.00017907900000000001
30.00000000000000000000,0.00016967300000000001
30.00000000000000000000,0.00016751799999999999
30.00000000000000000000,0.00017370200000000000
30.00000000000000000000,0.00017955599999999999
30.00000000000000000000,0.00017811699999999999
30.00000000000000000000,0.00016864600000000000
30.00000000000000000000,0.00015169900000000001
30.00000000000000000000,0.00012390099999999999
30.00000000000000000000,0.00007941939999999999
30.00000000000000000000,0.00002479250000000000
30.00000000000000000000,-0.00001561010000000000
30.00000000000000000000,-0.00003435980000000000
30.00000000000000000000,-0.00004482610000000000
30.00000000000000000000,-0.00005184730000000000
30.00000000000000000000,-0.00004692180000000000
30.00000000000000000000,-0.00002297790000000000
30.00000000000000000000,0.00001018410000000000
31.00000000000000000000,0.00003959850000000000
31.00000000000000000000,0.00006061060000000000
31.00000000000000000000,0.00007306280000000000
31.00000000000000000000,0.00007210540000000000
31.00000000000000000000,0.00005787570000000000
31.00000000000000000000,0.00004581740000000000
31.00000000000000000000,0.00004071210000000000
31.00000000000000000000,0.00002730250000000000
31.00000000000000000000,0.00000128161000000000
31.00000000000000000000,-0.00001788990000000000
31.00000000000000000000,-0.00001778200000000000
31.00000000000000000000,-0.00000049421600000000
31.00000000000000000000,0.00002494120000000000
31.00000000000000000000,0.00004972810000000000
31.00000000000000000000,0.00006663120000000001
31.00000000000000000000,0.00007168910000000000
31.00000000000000000000,0.00006805970000000000
31.00000000000000000000,0.00006068910000000000
31.00000000000000000000,0.00004822750000000000
31.00000000000000000000,0.00002717410000000000
32.00000000000000000000,-0.00000346779000000000
32.00000000000000000000,-0.00003381040000000000
32.00000000000000000000,-0.00004829880000000000
32.00000000000000000000,-0.00005711250000000000
32.00000000000000000000,-0.00007745550000000000
32.00000000000000000000,-0.00010974199999999999
32.00000000000000000000,-0.00013702199999999999
32.00000000000000000000,-0.00013128000000000000
32.00000000000000000000,-0.00008899700000000000
32.00000000000000000000,-0.00002297360000000000
32.00000000000000000000,0.00004769320000000000
32.00000000000000000000,0.00010801000000000000
32.00000000000000000000,0.00015392800000000001
32.00000000000000000000,0.00018133200000000000
32.00000000000000000000,0.00019543800000000001
32.00000000000000000000,0.00020061699999999999
32.00000000000000000000,0.00019882000000000000
32.00000000000000000000,0.00018954000000000000
32.00000000000000000000,0.00017631999999999999
32.00000000000000000000,0.00016235699999999999
33.00000000000000000000,0.00014790199999999999
33.00000000000000000000,0.00012922800000000000
33.00000000000000000000,0.00010521100000000001
33.00000000000000000000,0.00008053720000000001
33.00000000000000000000,0.00006109300000000001
33.00000000000000000000,0.00004885310000000000
33.00000000000000000000,0.00003936940000000000
33.00000000000000000000,0.00002889720000000000
33.00000000000000000000,0.00001008530000000000
33.00000000000000000000,-0.00001271010000000000
33.00000000000000000000,-0.00001652280000000000
33.00000000000000000000,0.00000333361000000000
33.00000000000000000000,0.00001937890000000000
33.00000000000000000000,0.00002190230000000000
33.00000000000000000000,0.00000740540000000000
33.00000000000000000000,-0.00003042990000000000
33.00000000000000000000,-0.00006713529999999999
33.00000000000000000000,-0.00008345290000000000
33.00000000000000000000,-0.00008477940000000000
33.00000000000000000000,-0.00008221339999999999
34.00000000000000000000,-0.00007158440000000000
34.00000000000000000000,-0.00003986040000000000
34.00000000000000000000,0.00001640100000000000
34.00000000000000000000,0.00008442590000000000
34.00000000000000000000,0.00013848800000000001
34.00000000000000000000,0.00016233999999999999
34.00000000000000000000,0.00015918500000000000
34.00000000000000000000,0.00014091300000000000
34.00000000000000000000,0.00011286200000000000
34.00000000000000000000,0.00008166150000000000
34.00000000000000000000,0.00005476160000000000
34.00000000000000000000,0.00003489180000000000
34.00000000000000000000,0.00002291560000000000
34.00000000000000000000,0.00002035100000000000
34.00000000000000000000,0.00002285930000000000
34.00000000000000000000,0.00002623500000000000
34.00000000000000000000,0.00002888080000000000
34.00000000000000000000,0.00002768360000000000
34.00000000000000000000,0.00002374730000000000
34.00000000000000000000,0.00002297910000000000
35.00000000000000000000,0.00002644280000000000
35.00000000000000000000,0.00003104320000000000
35.00000000000000000000,0.00003785610000000000
35.00000000000000000000,0.00004382780000000000
35.00000000000000000000,0.00004389850000000000
35.00000000000000000000,0.00004260320000000000
35.00000000000000000000,0.00004599800000000000
35.00000000000000000000,0.00004728830000000000
35.00000000000000000000,0.00003876970000000000
35.00000000000000000000,0.00002459010000000000
35.00000000000000000000,0.00000511367000000000
35.00000000000000000000,-0.00003142720000000000
35.00000000000000000000,-0.00008032670000000000
35.00000000000000000000,-0.00011511000000000000
35.00000000000000000000,-0.00012140800000000000
35.00000000000000000000,-0.00011245400000000000
35.00000000000000000000,-0.00010367299999999999
35.00000000000000000000,-0.00009035250000000000
35.00000000000000000000,-0.00004911320000000000
35.00000000000000000000,0.00002730080000000000
36.00000000000000000000,0.00010759099999999999
36.00000000000000000000,0.00016056200000000000
36.00000000000000000000,0.00019061400000000000
36.00000000000000000000,0.00020654000000000001
36.00000000000000000000,0.00021288899999999999
36.00000000000000000000,0.00022088399999999999
36.00000000000000000000,0.00022436099999999999
36.00000000000000000000,0.00022084900000000001
36.00000000000000000000,0.00021220899999999999
36.00000000000000000000,0.00019523300000000001
36.00000000000000000000,0.00016447599999999999
36.00000000000000000000,0.00011386700000000000
36.00000000000000000000,0.00005396990000000000
36.00000000000000000000,-0.00000201355000000000
36.00000000000000000000,-0.00004242550000000000
36.00000000000000000000,-0.00005533560000000000
36.00000000000000000000,-0.00004052190000000000
36.00000000000000000000,-0.00001065590000000000
36.00000000000000000000,0.00002131610000000000
36.00000000000000000000,0.00004632690000000000
37.00000000000000000000,0.00005780380000000000
37.00000000000000000000,0.00005820060000000000
37.00000000000000000000,0.00005517410000000000
37.00000000000000000000,0.00005186590000000000
37.00000000000000000000,0.00004539470000000000
37.00000000000000000000,0.00003624990000000000
37.00000000000000000000,0.00002686660000000000
37.00000000000000000000,0.00001427750000000000
37.00000000000000000000,0.00000242386000000000
37.00000000000000000000,0.00000121175000000000
37.00000000000000000000,0.00000792477000000000
37.00000000000000000000,0.00001245200000000000
37.00000000000000000000,0.00001274240000000000
37.00000000000000000000,0.00000987483000000000
37.00000000000000000000,0.00000571945000000000
37.00000000000000000000,0.00000472164000000000
37.00000000000000000000,0.00000681950000000000
37.00000000000000000000,0.00000782881000000000
37.00000000000000000000,-0.00000191189000000000
37.00000000000000000000,-0.00002020800000000000
38.00000000000000000000,-0.00004265710000000000
38.00000000000000000000,-0.00007984150000000000
38.00000000000000000000,-0.00011863400000000000
38.00000000000000000000,-0.00012420800000000000
38.00000000000000000000,-0.00009434730000000000
38.00000000000000000000,-0.00005746230000000000
38.00000000000000000000,-0.00002817120000000000
38.00000000000000000000,-0.00000007123780000000
38.00000000000000000000,0.00003636630000000000
38.00000000000000000000,0.00008898370000000001
38.00000000000000000000,0.00015807300000000000
38.00000000000000000000,0.00022595100000000001
38.00000000000000000000,0.00027027399999999998
38.00000000000000000000,0.00027818100000000001
38.00000000000000000000,0.00024811700000000001
38.00000000000000000000,0.00019479900000000000
38.00000000000000000000,0.00014591900000000000
38.00000000000000000000,0.00011765300000000001
38.00000000000000000000,0.00010221999999999999
38.00000000000000000000,0.00008620340000000000
39.00000000000000000000,0.00007778469999999999
39.00000000000000000000,0.00007918180000000000
39.00000000000000000000,0.00007321020000000000
39.00000000000000000000,0.00005507380000000000
39.00000000000000000000,0.00002500920000000000
39.00000000000000000000,-0.00001611950000000000
39.00000000000000000000,-0.00005528330000000000
39.00000000000000000000,-0.00008117149999999999
39.00000000000000000000,-0.00009126210000000000
39.00000000000000000000,-0.00007610310000000001
39.00000000000000000000,-0.00003199560000000000
39.00000000000000000000,0.00002698560000000000
39.00000000000000000000,0.00007620209999999999
39.00000000000000000000,0.00010332400000000000
39.00000000000000000000,0.00010945700000000001
39.00000000000000000000,0.00009989560000000001
39.00000000000000000000,0.00008214849999999999
39.00000000000000000000,0.00006368020000000000
39.00000000000000000000,0.00004813070000000000
39.00000000000000000000,0.00003345090000000000
40.00000000000000000000,0.00002119370000000000
40.00000000000000000000,0.00001290590000000000
40.00000000000000000000,0.00000854033000000000
40.00000000000000000000,0.00000550393000000000
40.00000000000000000000,0.00000072759000000000
40.00000000000000000000,-0.00000309932000000000
40.00000000000000000000,-0.00000161998000000000
40.00000000000000000000,0.00000179821000000000
40.00000000000000000000,0.00000273531000000000
40.00000000000000000000,0.00000033207800000000
40.00000000000000000000,-0.00000214712000000000
40.00000000000000000000,0.00000118851000000000
40.00000000000000000000,0.00001005190000000000
40.00000000000000000000,0.00001718900000000000
40.00000000000000000000,0.00002053410000000000
40.00000000000000000000,0.00002268680000000000
40.00000000000000000000,0.00002170480000000000
40.00000000000000000000,0.00001651570000000000
40.00000000000000000000,0.00000932403000000000
40.00000000000000000000,0.00000208015000000000
41.00000000000000000000,-0.00000684810000000000
41.00000000000000000000,-0.00001978600000000000
41.00000000000000000000,-0.00002932380000000000
41.00000000000000000000,-0.00002723320000000000
41.00000000000000000000,-0.00001668760000000000
41.00000000000000000000,-0.00000459859000000000
41.00000000000000000000,0.00001294680000000000
41.00000000000000000000,0.00003579920000000000
41.00000000000000000000,0.00004708660000000000
41.00000000000000000000,0.00004008520000000000
41.00000000000000000000,0.00002609070000000000
41.00000000000000000000,0.00001372400000000000
41.00000000000000000000,0.00001387670000000000
41.00000000000000000000,0.00004199370000000000
41.00000000000000000000,0.00008693539999999999
41.00000000000000000000,0.00013079800000000000
41.00000000000000000000,0.00016886200000000001
41.00000000000000000000,0.00018975700000000001
41.00000000000000000000,0.00019109600000000000
41.00000000000000000000,0.00017924999999999999
42.00000000000000000000,0.00015712800000000000
42.00000000000000000000,0.00013093900000000000
42.00000000000000000000,0.00010538100000000000
42.00000000000000000000,0.00007349780000000001
42.00000000000000000000,0.00002169250000000000
42.00000000000000000000,-0.00003867980000000000
42.00000000000000000000,-0.00008191430000000000
42.00000000000000000000,-0.00010056600000000000
42.00000000000000000000,-0.00010524600000000000
42.00000000000000000000,-0.00010785000000000001
42.00000000000000000000,-0.00010682800000000000
42.00000000000000000000,-0.00008934180000000000
42.00000000000000000000,-0.00004609510000000000
42.00000000000000000000,0.00001431830000000000
42.00000000000000000000,0.00008047590000000000
42.00000000000000000000,0.00014557099999999999
42.00000000000000000000,0.00019708099999999999
42.00000000000000000000,0.00022686200000000001
42.00000000000000000000,0.00023225399999999999
42.00000000000000000000,0.00021197600000000000
43.00000000000000000000,0.00017193699999999999
43.00000000000000000000,0.00012947600000000001
43.00000000000000000000,0.00009700430000000000
43.00000000000000000000,0.00007266350000000000
43.00000000000000000000,0.00005374820000000000
43.00000000000000000000,0.00004192040000000000
43.00000000000000000000,0.00003316740000000000
43.00000000000000000000,0.00002282620000000000
43.00000000000000000000,0.00001361390000000000
43.00000000000000000000,0.00000799244000000000
43.00000000000000000000,0.00000600890000000000
43.00000000000000000000,0.00000124961000000000
43.00000000000000000000,-0.00000950599000000000
43.00000000000000000000,-0.00002589150000000000
43.00000000000000000000,-0.00003970800000000000
43.00000000000000000000,-0.00004432690000000000
43.00000000000000000000,-0.00004360620000000000
43.00000000000000000000,-0.00004330190000000000
43.00000000000000000000,-0.00004106820000000000
43.00000000000000000000,-0.00002746430000000000
44.00000000000000000000,0.00000553845000000000
44.00000000000000000000,0.00005251760000000000
44.00000000000000000000,0.00009423250000000000
44.00000000000000000000,0.00011928700000000000
44.00000000000000000000,0.00012985399999999999
44.00000000000000000000,0.00012874900000000000
44.00000000000000000000,0.00011789800000000000
44.00000000000000000000,0.00010076400000000000
44.00000000000000000000,0.00007574230000000000
44.00000000000000000000,0.00004998510000000000
44.00000000000000000000,0.00003143580000000000
44.00000000000000000000,0.00001393380000000000
44.00000000000000000000,-0.00000292052000000000
44.00000000000000000000,-0.00000951168000000000
44.00000000000000000000,-0.00000457454000000000
44.00000000000000000000,0.00001516600000000000
44.00000000000000000000,0.00004286370000000000
44.00000000000000000000,0.00007049800000000000
44.00000000000000000000,0.00009174310000000000
44.00000000000000000000,0.00009393650000000000
45.00000000000000000000,0.00006805140000000000
45.00000000000000000000,0.00001985130000000000
45.00000000000000000000,-0.00002661560000000000
45.00000000000000000000,-0.00004950540000000000
45.00000000000000000000,-0.00004405240000000000
45.00000000000000000000,-0.00002131290000000000
45.00000000000000000000,0.00000868505000000000
45.00000000000000000000,0.00004278620000000000
45.00000000000000000000,0.00007875230000000000
45.00000000000000000000,0.00011059400000000001
45.00000000000000000000,0.00013486600000000001
45.00000000000000000000,0.00014031300000000001
45.00000000000000000000,0.00011789200000000000
45.00000000000000000000,0.00008186800000000000
45.00000000000000000000,0.00005438430000000000
45.00000000000000000000,0.00003671550000000000
45.00000000000000000000,0.00002201830000000000
45.00000000000000000000,0.00001464720000000000
45.00000000000000000000,0.00001516150000000000
45.00000000000000000000,0.00000414003000000000
46.00000000000000000000,-0.00002703200000000000
46.00000000000000000000,-0.00005254120000000000
46.00000000000000000000,-0.00005001200000000000
46.00000000000000000000,-0.00002652080000000000
46.00000000000000000000,0.00000429792000000000
46.00000000000000000000,0.00003386670000000000
46.00000000000000000000,0.00005651180000000000
46.00000000000000000000,0.00006953460000000000
46.00000000000000000000,0.00007697650000000000
46.00000000000000000000,0.00008294230000000000
46.00000000000000000000,0.00008685920000000000
46.00000000000000000000,0.00008999220000000000
46.00000000000000000000,0.00008933660000000000
46.00000000000000000000,0.00008081370000000000
46.00000000000000000000,0.00006625060000000000
46.00000000000000000000,0.00004827780000000000
46.00000000000000000000,0.00002898460000000000
46.00000000000000000000,0.00001413170000000000
46.00000000000000000000,0.00000736565000000000
46.00000000000000000000,0.00000825767000000000
47.00000000000000000000,0.00000945166000000000
47.00000000000000000000,0.00001492500000000000
47.00000000000000000000,0.00002190810000000000
47.00000000000000000000,0.00001910900000000000
47.00000000000000000000,0.00000650522000000000
47.00000000000000000000,-0.00000826139000000000
47.00000000000000000000,-0.00001409880000000000
47.00000000000000000000,-0.00001210280000000000
47.00000000000000000000,-0.00000041381900000000
47.00000000000000000000,0.00001850760000000000
47.00000000000000000000,0.00003483410000000000
47.00000000000000000000,0.00004693970000000000
47.00000000000000000000,0.00005275290000000000
47.00000000000000000000,0.00004826720000000000
47.00000000000000000000,0.00003630150000000000
47.00000000000000000000,0.00002732980000000000
47.00000000000000000000,0.00002776080000000000
47.00000000000000000000,0.00003601140000000000
47.00000000000000000000,0.00004807050000000000
47.00000000000000000000,0.00006132300000000000
48.00000000000000000000,0.00007107030000000000
48.00000000000000000000,0.00007017150000000000
48.00000000000000000000,0.00005289150000000000
48.00000000000000000000,0.00002544630000000000
48.00000000000000000000,0.00001311940000000000
48.00000000000000000000,0.00002533130000000000
48.00000000000000000000,0.00004551120000000000
48.00000000000000000000,0.00006848770000000000
48.00000000000000000000,0.00008768810000000000
48.00000000000000000000,0.00007402590000000001
48.00000000000000000000,0.00001747590000000000
48.00000000000000000000,-0.00004722720000000000
48.00000000000000000000,-0.00008195700000000000
48.00000000000000000000,-0.00007917480000000000
48.00000000000000000000,-0.00005207190000000000
48.00000000000000000000,-0.00001147750000000000
48.00000000000000000000,0.00002762140000000000
48.00000000000000000000,0.00005747590000000000
48.00000000000000000000,0.00008113290000000000
48.00000000000000000000,0.00009914219999999999
49.00000000000000000000,0.00011731500000000000
49.00000000000000000000,0.00013228299999999999
49.00000000000000000000,0.00013328900000000000
49.00000000000000000000,0.00011509200000000000
49.00000000000000000000,0.00009057480000000001
49.00000000000000000000,0.00008115969999999999
49.00000000000000000000,0.00009931920000000000
49.00000000000000000000,0.00014090000000000001
49.00000000000000000000,0.00018819200000000000
49.00000000000000000000,0.00021797700000000000
49.00000000000000000000,0.00021570700000000001
49.00000000000000000000,0.00018846299999999999
49.00000000000000000000,0.00015048100000000000
49.00000000000000000000,0.00011006999999999999
49.00000000000000000000,0.00007411590000000000
49.00000000000000000000,0.00004551710000000000
49.00000000000000000000,0.00002909730000000000
49.00000000000000000000,0.00002429770000000000
49.00000000000000000000,0.00002356730000000000
49.00000000000000000000,0.00003129530000000000
50.00000000000000000000,0.00004965540000000000
50.00000000000000000000,0.00006323000000000000
50.00000000000000000000,0.00005371050000000000
50.00000000000000000000,0.00002990060000000000
50.00000000000000000000,0.00001016050000000000
50.00000000000000000000,-0.00000051863000000000
50.00000000000000000000,-0.00000744087000000000
50.00000000000000000000,-0.00001660780000000000
50.00000000000000000000,-0.00002565050000000000
50.00000000000000000000,-0.00002898640000000000
50.00000000000000000000,-0.00002794180000000000
50.00000000000000000000,-0.00002688060000000000
50.00000000000000000000,-0.00002596860000000000
50.00000000000000000000,-0.00002310250000000000
50.00000000000000000000,-0.00001499690000000000
50.00000000000000000000,-0.00000215317000000000
50.00000000000000000000,0.00000661591000000000
50.00000000000000000000,0.00000473010000000000
50.00000000000000000000,-0.00000003634480000000
50.00000000000000000000,0.00000309982000000000
51.00000000000000000000,0.00001187440000000000
51.00000000000000000000,0.00002452380000000000
51.00000000000000000000,0.00003943570000000000
51.00000000000000000000,0.00004283780000000000
51.00000000000000000000,0.00002914080000000000
51.00000000000000000000,0.00000668388000000000
51.00000000000000000000,-0.00000794194000000000
51.00000000000000000000,-0.00000866898000000000
51.00000000000000000000,-0.00001023260000000000
51.00000000000000000000,-0.00002084240000000000
51.00000000000000000000,-0.00002415700000000000
51.00000000000000000000,-0.00000767121000000000
51.00000000000000000000,0.00001847320000000000
51.00000000000000000000,0.00003992600000000000
51.00000000000000000000,0.00005416350000000000
51.00000000000000000000,0.00006696170000000001
51.00000000000000000000,0.00007444530000000000
51.00000000000000000000,0.00007218130000000000
51.00000000000000000000,0.00006325300000000000
51.00000000000000000000,0.00004649880000000000
52.00000000000000000000,0.00001944200000000000
52.00000000000000000000,-0.00000782339000000000
52.00000000000000000000,-0.00002052090000000000
52.00000000000000000000,-0.00001545310000000000
52.00000000000000000000,0.00000120986000000000
52.00000000000000000000,0.00002683180000000000
52.00000000000000000000,0.00005965160000000000
52.00000000000000000000,0.00009553080000000000
52.00000000000000000000,0.00012532500000000000
52.00000000000000000000,0.00013500200000000001
52.00000000000000000000,0.00012665500000000001
52.00000000000000000000,0.00010876500000000001
52.00000000000000000000,0.00008830070000000000
52.00000000000000000000,0.00006664729999999999
52.00000000000000000000,0.00004380350000000000
52.00000000000000000000,0.00002975790000000000
52.00000000000000000000,0.00002796600000000000
52.00000000000000000000,0.00003053580000000000
52.00000000000000000000,0.00002973810000000000
52.00000000000000000000,0.00002577590000000000
53.00000000000000000000,0.00002141350000000000
53.00000000000000000000,0.00001885500000000000
53.00000000000000000000,0.00001740040000000000
53.00000000000000000000,0.00001649350000000000
53.00000000000000000000,0.00001822920000000000
53.00000000000000000000,0.00002607590000000000
53.00000000000000000000,0.00004013690000000000
53.00000000000000000000,0.00005526260000000000
53.00000000000000000000,0.00006349910000000000
53.00000000000000000000,0.00005848560000000000
53.00000000000000000000,0.00004567560000000000
53.00000000000000000000,0.00003662490000000000
53.00000000000000000000,0.00003087300000000000
53.00000000000000000000,0.00000958391000000000
53.00000000000000000000,-0.00004709580000000000
53.00000000000000000000,-0.00011161900000000000
53.00000000000000000000,-0.00013158500000000001
53.00000000000000000000,-0.00010967100000000000
53.00000000000000000000,-0.00009131590000000000
53.00000000000000000000,-0.00009182470000000000
54.00000000000000000000,-0.00008047270000000001
54.00000000000000000000,-0.00004413390000000000
54.00000000000000000000,0.00000988905000000000
54.00000000000000000000,0.00008048110000000000
54.00000000000000000000,0.00015816199999999999
54.00000000000000000000,0.00022067199999999999
54.00000000000000000000,0.00025410000000000000
54.00000000000000000000,0.00026423400000000002
54.00000000000000000000,0.00026297600000000000
54.00000000000000000000,0.00025652299999999998
54.00000000000000000000,0.00023997200000000000
54.00000000000000000000,0.00020644599999999999
54.00000000000000000000,0.00015781599999999999
54.00000000000000000000,0.00010303800000000000
54.00000000000000000000,0.00004935600000000000
54.00000000000000000000,-0.00000010030000000000
54.00000000000000000000,-0.00003903670000000000
54.00000000000000000000,-0.00005757070000000000
54.00000000000000000000,-0.00006048800000000000
54.00000000000000000000,-0.00005650700000000000
55.00000000000000000000,-0.00004058280000000000
55.00000000000000000000,-0.00000479017000000000
55.00000000000000000000,0.00004162410000000000
55.00000000000000000000,0.00008731819999999999
55.00000000000000000000,0.00011811699999999999
55.00000000000000000000,0.00012403800000000001
55.00000000000000000000,0.00011064000000000000
55.00000000000000000000,0.00008563340000000000
55.00000000000000000000,0.00006017470000000000
55.00000000000000000000,0.00003374570000000000
55.00000000000000000000,0.00001205890000000000
55.00000000000000000000,0.00000112763000000000
55.00000000000000000000,-0.00000271198000000000
55.00000000000000000000,-0.00000330582000000000
55.00000000000000000000,0.00000066269000000000
55.00000000000000000000,0.00000584398000000000
55.00000000000000000000,0.00000649855000000000
55.00000000000000000000,0.00000450504000000000
55.00000000000000000000,0.00000273603000000000
55.00000000000000000000,0.00000343742000000000
56.00000000000000000000,0.00000623834000000000
56.00000000000000000000,0.00001008230000000000
56.00000000000000000000,0.00001177670000000000
56.00000000000000000000,0.00001333480000000000
56.00000000000000000000,0.00001571710000000000
56.00000000000000000000,0.00001817830000000000
56.00000000000000000000,0.00002338080000000000
56.00000000000000000000,0.00003106630000000000
56.00000000000000000000,0.00003234490000000000
56.00000000000000000000,0.00002778000000000000
56.00000000000000000000,0.00002373070000000000
56.00000000000000000000,0.00002428100000000000
56.00000000000000000000,0.00003395560000000000
56.00000000000000000000,0.00004425780000000000
56.00000000000000000000,0.00004790570000000000
56.00000000000000000000,0.00004746450000000000
56.00000000000000000000,0.00004378900000000000
56.00000000000000000000,0.00004207040000000000
56.00000000000000000000,0.00004161910000000000
56.00000000000000000000,0.00003742980000000000
57.00000000000000000000,0.00003195770000000000
57.00000000000000000000,0.00002711810000000000
57.00000000000000000000,0.00001474120000000000
57.00000000000000000000,-0.00000831776000000000
57.00000000000000000000,-0.00003036290000000000
57.00000000000000000000,-0.00004409160000000000
57.00000000000000000000,-0.00004847080000000000
57.00000000000000000000,-0.00003632880000000000
57.00000000000000000000,-0.00000360291000000000
57.00000000000000000000,0.00003273400000000000
57.00000000000000000000,0.00005121700000000000
57.00000000000000000000,0.00006119210000000000
57.00000000000000000000,0.00009222309999999999
57.00000000000000000000,0.00013481999999999999
57.00000000000000000000,0.00015914299999999999
57.00000000000000000000,0.00015760000000000001
57.00000000000000000000,0.00013907300000000000
57.00000000000000000000,0.00010964700000000000
57.00000000000000000000,0.00008490860000000000
57.00000000000000000000,0.00007829240000000000
58.00000000000000000000,0.00008482310000000000
58.00000000000000000000,0.00009742950000000000
58.00000000000000000000,0.00010259500000000000
58.00000000000000000000,0.00010205900000000001
58.00000000000000000000,0.00010582100000000000
58.00000000000000000000,0.00011416800000000000
58.00000000000000000000,0.00011464600000000000
58.00000000000000000000,0.00009500970000000001
58.00000000000000000000,0.00005426070000000000
58.00000000000000000000,0.00000629610000000000
58.00000000000000000000,-0.00002362800000000000
58.00000000000000000000,-0.00001921800000000000
58.00000000000000000000,0.00001129500000000000
58.00000000000000000000,0.00004338600000000000
58.00000000000000000000,0.00005866400000000000
58.00000000000000000000,0.00005160710000000000
58.00000000000000000000,0.00003499200000000000
58.00000000000000000000,0.00002435250000000000
58.00000000000000000000,0.00002077590000000000
58.00000000000000000000,0.00001670340000000000
59.00000000000000000000,0.00001480360000000000
59.00000000000000000000,0.00001826030000000000
59.00000000000000000000,0.00001742500000000000
59.00000000000000000000,0.00000815488000000000
59.00000000000000000000,-0.00000798748000000000
59.00000000000000000000,-0.00002910580000000000
59.00000000000000000000,-0.00004556190000000000
59.00000000000000000000,-0.00004144510000000000
59.00000000000000000000,-0.00001393600000000000
59.00000000000000000000,0.00001981810000000000
59.00000000000000000000,0.00004538850000000000
59.00000000000000000000,0.00005743050000000000
59.00000000000000000000,0.00006002410000000000
59.00000000000000000000,0.00005363170000000000
59.00000000000000000000,0.00004169340000000000
59.00000000000000000000,0.00003187440000000000
59.00000000000000000000,0.00002518780000000000
59.00000000000000000000,0.00002024800000000000
59.00000000000000000000,0.00001890020000000000
59.00000000000000000000,0.00002365060000000000
60.00000000000000000000,0.00003293020000000000
60.00000000000000000000,0.00004512340000000000
60.00000000000000000000,0.00005413940000000000
60.00000000000000000000,0.00004989960000000000
60.00000000000000000000,0.00003413460000000000
60.00000000000000000000,0.00002314220000000000
60.00000000000000000000,0.00002110810000000000
60.00000000000000000000,0.00001688450000000000
60.00000000000000000000,-0.00000220551000000000
60.00000000000000000000,-0.00003357680000000000
60.00000000000000000000,-0.00007773520000000000
60.00000000000000000000,-0.00015655500000000001
60.00000000000000000000,-0.00024758499999999998
60.00000000000000000000,-0.00028890799999999999
60.00000000000000000000,-0.00025791200000000001
60.00000000000000000000,-0.00016542600000000001
60.00000000000000000000,-0.00004455700000000000
60.00000000000000000000,0.00007507740000000000
60.00000000000000000000,0.00018575699999999999
60.00000000000000000000,0.00028245599999999999
61.00000000000000000000,0.00035164899999999999
61.00000000000000000000,0.00038820599999999999
61.00000000000000000000,0.00039210699999999999
61.00000000000000000000,0.00036231700000000002
61.00000000000000000000,0.00030943300000000002
61.00000000000000000000,0.00025494899999999997
61.00000000000000000000,0.00021351700000000001
61.00000000000000000000,0.00018523800000000000
61.00000000000000000000,0.00016722600000000000
61.00000000000000000000,0.00015381200000000000
61.00000000000000000000,0.00013858699999999999
61.00000000000000000000,0.00011707500000000000
61.00000000000000000000,0.00008592230000000000
61.00000000000000000000,0.00004873490000000000
61.00000000000000000000,0.00002038220000000000
61.00000000000000000000,0.00000211113000000000
61.00000000000000000000,-0.00001846060000000000
61.00000000000000000000,-0.00004213400000000000
61.00000000000000000000,-0.00005681730000000000
61.00000000000000000000,-0.00005897470000000000
62.00000000000000000000,-0.00005671230000000000
62.00000000000000000000,-0.00005676130000000000
62.00000000000000000000,-0.00005469500000000000
62.00000000000000000000,-0.00004574910000000000
62.00000000000000000000,-0.00003571960000000000
62.00000000000000000000,-0.00003338650000000000
62.00000000000000000000,-0.00003291810000000000
62.00000000000000000000,-0.00002978630000000000
62.00000000000000000000,-0.00002247340000000000
62.00000000000000000000,-0.00001278470000000000
62.00000000000000000000,-0.00000481944000000000
62.00000000000000000000,-0.00000140483000000000
62.00000000000000000000,0.00000093228200000000
62.00000000000000000000,0.00000664075000000000
62.00000000000000000000,0.00001180080000000000
62.00000000000000000000,0.00001478610000000000
62.00000000000000000000,0.00001795820000000000
62.00000000000000000000,0.00002492000000000000
62.00000000000000000000,0.00002883670000000000
62.00000000000000000000,0.00002471800000000000
63.00000000000000000000,0.00001698570000000000
63.00000000000000000000,0.00001365830000000000
63.00000000000000000000,0.00001534050000000000
63.00000000000000000000,0.00001828850000000000
63.00000000000000000000,0.00002079130000000000
63.00000000000000000000,0.00002109910000000000
63.00000000000000000000,0.00002098060000000000
63.00000000000000000000,0.00002905240000000000
63.00000000000000000000,0.00004558750000000000
63.00000000000000000000,0.00006870280000000000
63.00000000000000000000,0.00008881270000000000
63.00000000000000000000,0.00009121450000000001
63.00000000000000000000,0.00008044110000000000
63.00000000000000000000,0.00007161790000000000
63.00000000000000000000,0.00006633950000000000
63.00000000000000000000,0.00005887360000000000
63.00000000000000000000,0.00004909790000000000
63.00000000000000000000,0.00004139790000000000
63.00000000000000000000,0.00003674190000000000
63.00000000000000000000,0.00003232560000000000
64.00000000000000000000,0.00002020240000000000
64.00000000000000000000,-0.00000940846000000000
64.00000000000000000000,-0.00005367020000000000
64.00000000000000000000,-0.00009399450000000000
64.00000000000000000000,-0.00011117700000000000
64.00000000000000000000,-0.00010702800000000001
64.00000000000000000000,-0.00009109640000000000
64.00000000000000000000,-0.00006399740000000000
64.00000000000000000000,-0.00002412080000000000
64.00000000000000000000,0.00002500750000000000
64.00000000000000000000,0.00008251450000000000
64.00000000000000000000,0.00014627400000000000
64.00000000000000000000,0.00021861900000000000
64.00000000000000000000,0.00027687300000000002
64.00000000000000000000,0.00030067899999999999
64.00000000000000000000,0.00029206799999999998
64.00000000000000000000,0.00025572399999999998
64.00000000000000000000,0.00021001400000000001
64.00000000000000000000,0.00016238400000000001
64.00000000000000000000,0.00011778000000000000
65.00000000000000000000,0.00007773150000000000
65.00000000000000000000,0.00004070920000000000
65.00000000000000000000,0.00000382316000000000
65.00000000000000000000,-0.00002621680000000000
65.00000000000000000000,-0.00003860250000000000
65.00000000000000000000,-0.00003221520000000000
65.00000000000000000000,-0.00001524690000000000
65.00000000000000000000,0.00000229569000000000
65.00000000000000000000,0.00001750510000000000
65.00000000000000000000,0.00002838470000000000
65.00000000000000000000,0.00003388220000000000
65.00000000000000000000,0.00003070390000000000
65.00000000000000000000,0.00002192000000000000
65.00000000000000000000,0.00001551350000000000
65.00000000000000000000,0.00001411350000000000
65.00000000000000000000,0.00001161090000000000
65.00000000000000000000,0.00000855240000000000
65.00000000000000000000,0.00000274530000000000
65.00000000000000000000,-0.00002127900000000000
65.00000000000000000000,-0.00005566070000000000
66.00000000000000000000,-0.00006113630000000000
66.00000000000000000000,-0.00004786560000000000
66.00000000000000000000,-0.00004279500000000000
66.00000000000000000000,-0.00004003740000000000
66.00000000000000000000,-0.00002505680000000000
66.00000000000000000000,0.00000772382000000000
66.00000000000000000000,0.00004768340000000000
66.00000000000000000000,0.00008593600000000000
66.00000000000000000000,0.00011110500000000000
66.00000000000000000000,0.00012405200000000001
66.00000000000000000000,0.00012144100000000000
66.00000000000000000000,0.00010032700000000000
66.00000000000000000000,0.00007095420000000000
66.00000000000000000000,0.00004963900000000000
66.00000000000000000000,0.00003639870000000000
66.00000000000000000000,0.00002408920000000000
66.00000000000000000000,0.00001755760000000000
66.00000000000000000000,0.00002418230000000000
66.00000000000000000000,0.00004100990000000000
66.00000000000000000000,0.00006293960000000000
67.00000000000000000000,0.00009034030000000000
67.00000000000000000000,0.00011667800000000000
67.00000000000000000000,0.00013265600000000001
67.00000000000000000000,0.00013189699999999999
67.00000000000000000000,0.00011719500000000001
67.00000000000000000000,0.00009916170000000000
67.00000000000000000000,0.00008451839999999999
67.00000000000000000000,0.00007190480000000000
67.00000000000000000000,0.00005910090000000000
67.00000000000000000000,0.00004619790000000000
67.00000000000000000000,0.00003557280000000000
67.00000000000000000000,0.00002576810000000000
67.00000000000000000000,0.00001949570000000000
67.00000000000000000000,0.00001512570000000000
67.00000000000000000000,0.00001088380000000000
67.00000000000000000000,0.00000690866000000000
67.00000000000000000000,0.00000688651000000000
67.00000000000000000000,0.00000930889000000000
67.00000000000000000000,0.00001015900000000000
67.00000000000000000000,0.00000843059000000000
68.00000000000000000000,0.00000629185000000000
68.00000000000000000000,0.00000764669000000000
68.00000000000000000000,0.00001117680000000000
68.00000000000000000000,0.00001445770000000000
68.00000000000000000000,0.00001399770000000000
68.00000000000000000000,0.00001328040000000000
68.00000000000000000000,0.00001545770000000000
68.00000000000000000000,0.00001879940000000000
68.00000000000000000000,0.00002046830000000000
68.00000000000000000000,0.00002428400000000000
68.00000000000000000000,0.00003341910000000000
68.00000000000000000000,0.00004209590000000000
68.00000000000000000000,0.00004803320000000000
68.00000000000000000000,0.00005607410000000000
68.00000000000000000000,0.00005156970000000000
68.00000000000000000000,0.00001880310000000000
68.00000000000000000000,-0.00004249200000000000
68.00000000000000000000,-0.00011300700000000000
68.00000000000000000000,-0.00015226000000000001
68.00000000000000000000,-0.00014949000000000001
69.00000000000000000000,-0.00012866200000000001
69.00000000000000000000,-0.00008671330000000000
69.00000000000000000000,-0.00001240130000000000
69.00000000000000000000,0.00007404100000000000
69.00000000000000000000,0.00015222599999999999
69.00000000000000000000,0.00021302199999999999
69.00000000000000000000,0.00024928500000000002
69.00000000000000000000,0.00025532400000000002
69.00000000000000000000,0.00023472500000000000
69.00000000000000000000,0.00020137200000000001
69.00000000000000000000,0.00016558600000000001
69.00000000000000000000,0.00012703599999999999
69.00000000000000000000,0.00008573180000000000
69.00000000000000000000,0.00005247830000000000
69.00000000000000000000,0.00004296180000000000
69.00000000000000000000,0.00005322890000000000
69.00000000000000000000,0.00006351360000000000
69.00000000000000000000,0.00006268460000000000
69.00000000000000000000,0.00005369650000000000
69.00000000000000000000,0.00003683990000000000
70.00000000000000000000,0.00001138330000000000
70.00000000000000000000,0.00000617671000000000
70.00000000000000000000,0.00002354510000000000
70.00000000000000000000,0.00003761840000000000
70.00000000000000000000,0.00004456470000000000
70.00000000000000000000,0.00004503180000000000
70.00000000000000000000,0.00004341650000000000
70.00000000000000000000,0.00004146790000000000
70.00000000000000000000,0.00003829560000000000
70.00000000000000000000,0.00003284150000000000
70.00000000000000000000,0.00002969890000000000
70.00000000000000000000,0.00002889900000000000
70.00000000000000000000,0.00002921270000000000
70.00000000000000000000,0.00002743090000000000
70.00000000000000000000,0.00002055600000000000
70.00000000000000000000,0.00001038700000000000
70.00000000000000000000,0.00000321240000000000
70.00000000000000000000,0.00000425458000000000
70.00000000000000000000,0.00000731017000000000
70.00000000000000000000,0.00000744738000000000
71.00000000000000000000,0.00000675128000000000
71.00000000000000000000,0.00000806535000000000
71.00000000000000000000,0.00000915683000000000
71.00000000000000000000,0.00000987902000000000
71.00000000000000000000,0.00001000730000000000
71.00000000000000000000,0.00000855031000000000
71.00000000000000000000,0.00000670213000000000
71.00000000000000000000,0.00001298460000000000
71.00000000000000000000,0.00002701210000000000
71.00000000000000000000,0.00003547880000000000
71.00000000000000000000,0.00003467770000000000
71.00000000000000000000,0.00003236310000000000
71.00000000000000000000,0.00003371310000000000
71.00000000000000000000,0.00003502170000000000
71.00000000000000000000,0.00003457150000000000
71.00000000000000000000,0.00003776350000000000
71.00000000000000000000,0.00004235730000000000
71.00000000000000000000,0.00004172490000000000
71.00000000000000000000,0.00002911220000000000
71.00000000000000000000,0.00000478826000000000
72.00000000000000000000,-0.00002911720000000000
72.00000000000000000000,-0.00007350270000000000
72.00000000000000000000,-0.00012423900000000000
72.00000000000000000000,-0.00016500600000000001
72.00000000000000000000,-0.00017045999999999999
72.00000000000000000000,-0.00012327000000000000
72.00000000000000000000,-0.00003080610000000000
72.00000000000000000000,0.00007901940000000000
72.00000000000000000000,0.00017626299999999999
72.00000000000000000000,0.00024071900000000000
72.00000000000000000000,0.00026685599999999999
72.00000000000000000000,0.00026157099999999999
72.00000000000000000000,0.00024151100000000000
72.00000000000000000000,0.00022004699999999999
72.00000000000000000000,0.00020843100000000000
72.00000000000000000000,0.00020406900000000000
72.00000000000000000000,0.00019303500000000001
72.00000000000000000000,0.00017110100000000000
72.00000000000000000000,0.00014282300000000001
72.00000000000000000000,0.00011012000000000000
73.00000000000000000000,0.00006891950000000000
73.00000000000000000000,0.00002569280000000000
73.00000000000000000000,-0.00000882505000000000
73.00000000000000000000,-0.00003455720000000000
73.00000000000000000000,-0.00004761850000000000
73.00000000000000000000,-0.00004744240000000000
73.00000000000000000000,-0.00003896400000000000
73.00000000000000000000,-0.00002790070000000000
73.00000000000000000000,-0.00001545890000000000
73.00000000000000000000,-0.00000201933000000000
73.00000000000000000000,0.00000998973000000000
73.00000000000000000000,0.00001678230000000000
73.00000000000000000000,0.00001548400000000000
73.00000000000000000000,0.00000965789000000000
73.00000000000000000000,0.00000587160000000000
73.00000000000000000000,0.00000583449000000000
73.00000000000000000000,0.00000398990000000000
73.00000000000000000000,0.00000176075000000000
73.00000000000000000000,0.00000361394000000000
73.00000000000000000000,0.00000559722000000000
74.00000000000000000000,0.00000601513000000000
74.00000000000000000000,0.00001096550000000000
74.00000000000000000000,0.00001526140000000000
74.00000000000000000000,0.00001856700000000000
74.00000000000000000000,0.00002085340000000000
74.00000000000000000000,0.00002444040000000000
74.00000000000000000000,0.00003312570000000000
74.00000000000000000000,0.00003736650000000000
74.00000000000000000000,0.00003764800000000000
74.00000000000000000000,0.00004013290000000000
74.00000000000000000000,0.00004300250000000000
74.00000000000000000000,0.00003928520000000000
74.00000000000000000000,0.00002995200000000000
74.00000000000000000000,0.00002490570000000000
74.00000000000000000000,0.00002817980000000000
74.00000000000000000000,0.00002938370000000000
74.00000000000000000000,0.00001137700000000000
74.00000000000000000000,-0.00002582120000000000
74.00000000000000000000,-0.00005930660000000000
74.00000000000000000000,-0.00006815090000000000
75.00000000000000000000,-0.00005818020000000000
75.00000000000000000000,-0.00004124750000000000
75.00000000000000000000,-0.00001571240000000000
75.00000000000000000000,0.00001633560000000000
75.00000000000000000000,0.00004197580000000000
75.00000000000000000000,0.00005182450000000000
75.00000000000000000000,0.00005837000000000000
75.00000000000000000000,0.00007879480000000001
75.00000000000000000000,0.00011704600000000000
75.00000000000000000000,0.00016120600000000000
75.00000000000000000000,0.00019869700000000001
75.00000000000000000000,0.00022383300000000000
75.00000000000000000000,0.00023267399999999999
75.00000000000000000000,0.00022796099999999999
75.00000000000000000000,0.00021063399999999999
75.00000000000000000000,0.00018132399999999999
75.00000000000000000000,0.00014334999999999999
75.00000000000000000000,0.00010725500000000000
75.00000000000000000000,0.00007852080000000000
75.00000000000000000000,0.00005886530000000000
76.00000000000000000000,0.00004642120000000000
76.00000000000000000000,0.00003733160000000000
76.00000000000000000000,0.00003136930000000000
76.00000000000000000000,0.00002988690000000000
76.00000000000000000000,0.00003127930000000000
76.00000000000000000000,0.00002873630000000000
76.00000000000000000000,0.00001883220000000000
76.00000000000000000000,0.00000295945000000000
76.00000000000000000000,-0.00000933376000000000
76.00000000000000000000,-0.00001349160000000000
76.00000000000000000000,-0.00001396310000000000
76.00000000000000000000,-0.00001999350000000000
76.00000000000000000000,-0.00003014540000000000
76.00000000000000000000,-0.00003083540000000000
76.00000000000000000000,-0.00001942290000000000
76.00000000000000000000,-0.00001774470000000000
76.00000000000000000000,-0.00003133260000000000
76.00000000000000000000,-0.00003309370000000000
76.00000000000000000000,-0.00001714680000000000
76.00000000000000000000,-0.00000280326000000000
77.00000000000000000000,0.00000316021000000000
77.00000000000000000000,-0.00000102331000000000
77.00000000000000000000,-0.00002320130000000000
77.00000000000000000000,-0.00005008740000000000
77.00000000000000000000,-0.00005161120000000000
77.00000000000000000000,-0.00002226380000000000
77.00000000000000000000,0.00001674620000000000
77.00000000000000000000,0.00005088890000000000
77.00000000000000000000,0.00008048850000000000
77.00000000000000000000,0.00010157900000000000
77.00000000000000000000,0.00010888899999999999
77.00000000000000000000,0.00010886000000000000
77.00000000000000000000,0.00011124000000000000
77.00000000000000000000,0.00011189600000000000
77.00000000000000000000,0.00010348699999999999
77.00000000000000000000,0.00008890540000000000
77.00000000000000000000,0.00007553380000000000
77.00000000000000000000,0.00007331930000000000
77.00000000000000000000,0.00008274870000000000
77.00000000000000000000,0.00009183800000000000
78.00000000000000000000,0.00009417000000000000
78.00000000000000000000,0.00009303930000000000
78.00000000000000000000,0.00008859830000000000
78.00000000000000000000,0.00007993850000000000
78.00000000000000000000,0.00006593330000000000
78.00000000000000000000,0.00004440550000000000
78.00000000000000000000,0.00001828100000000000
78.00000000000000000000,-0.00000385994000000000
78.00000000000000000000,-0.00001851220000000000
78.00000000000000000000,-0.00002511280000000000
78.00000000000000000000,-0.00002400130000000000
78.00000000000000000000,-0.00001753370000000000
78.00000000000000000000,-0.00000720684000000000
78.00000000000000000000,0.00000366342000000000
78.00000000000000000000,0.00001216770000000000
78.00000000000000000000,0.00001705580000000000
78.00000000000000000000,0.00001951050000000000
78.00000000000000000000,0.00002006090000000000
78.00000000000000000000,0.00001800690000000000
78.00000000000000000000,0.00001628990000000000
79.00000000000000000000,0.00001851170000000000
79.00000000000000000000,0.00002223260000000000
79.00000000000000000000,0.00002182130000000000
79.00000000000000000000,0.00001925410000000000
79.00000000000000000000,0.00001730380000000000
79.00000000000000000000,0.00001362200000000000
79.00000000000000000000,0.00000248391000000000
79.00000000000000000000,-0.00002188410000000000
79.00000000000000000000,-0.00005413720000000000
79.00000000000000000000,-0.00007817960000000000
79.00000000000000000000,-0.00007879040000000000
79.00000000000000000000,-0.00006419230000000001
79.00000000000000000000,-0.00004825470000000000
79.00000000000000000000,-0.00002082240000000000
79.00000000000000000000,0.00003141290000000000
79.00000000000000000000,0.00009445890000000000
79.00000000000000000000,0.00014049099999999999
79.00000000000000000000,0.00015505299999999999
79.00000000000000000000,0.00014528200000000000
79.00000000000000000000,0.00013855700000000001
80.00000000000000000000,0.00014391100000000001
80.00000000000000000000,0.00015089500000000001
80.00000000000000000000,0.00015353400000000001
80.00000000000000000000,0.00014842900000000000
80.00000000000000000000,0.00013382600000000000
80.00000000000000000000,0.00010968700000000000
80.00000000000000000000,0.00007951020000000000
80.00000000000000000000,0.00005065550000000000
80.00000000000000000000,0.00003255370000000000
80.00000000000000000000,0.00002582430000000000
80.00000000000000000000,0.00002147360000000000
80.00000000000000000000,0.00001641870000000000
80.00000000000000000000,0.00001710020000000000
80.00000000000000000000,0.00001549380000000000
80.00000000000000000000,-0.00000751141000000000
80.00000000000000000000,-0.00004799900000000000
80.00000000000000000000,-0.00008895750000000000
80.00000000000000000000,-0.00010565000000000001
80.00000000000000000000,-0.00009009150000000000
80.00000000000000000000,-0.00005683640000000000
81.00000000000000000000,-0.00000809182000000000
81.00000000000000000000,0.00005376160000000000
81.00000000000000000000,0.00011704600000000000
81.00000000000000000000,0.00016074500000000001
81.00000000000000000000,0.00018021300000000000
81.00000000000000000000,0.00018410599999999999
81.00000000000000000000,0.00017869199999999999
81.00000000000000000000,0.00016090500000000001
81.00000000000000000000,0.00013133400000000001
81.00000000000000000000,0.00009783020000000000
81.00000000000000000000,0.00006634139999999999
81.00000000000000000000,0.00004128280000000000
81.00000000000000000000,0.00002833850000000000
81.00000000000000000000,0.00003018390000000000
81.00000000000000000000,0.00003622350000000000
81.00000000000000000000,0.00003596800000000000
81.00000000000000000000,0.00002879150000000000
81.00000000000000000000,0.00002254440000000000
81.00000000000000000000,0.00002134940000000000
81.00000000000000000000,0.00002250110000000000
82.00000000000000000000,0.00001881640000000000
82.00000000000000000000,0.00001164300000000000
82.00000000000000000000,0.00000698355000000000
82.00000000000000000000,0.00000645370000000000
82.00000000000000000000,0.00000303099000000000
82.00000000000000000000,-0.00000234303000000000
82.00000000000000000000,-0.00000654945000000000
82.00000000000000000000,-0.00000948080000000000
82.00000000000000000000,-0.00001437770000000000
82.00000000000000000000,-0.00001810350000000000
82.00000000000000000000,-0.00001151380000000000
82.00000000000000000000,0.00000416703000000000
82.00000000000000000000,0.00002288050000000000
82.00000000000000000000,0.00003995830000000000
82.00000000000000000000,0.00005322710000000000
82.00000000000000000000,0.00006096110000000000
82.00000000000000000000,0.00006440130000000000
82.00000000000000000000,0.00006542810000000000
82.00000000000000000000,0.00006682820000000001
82.00000000000000000000,0.00006826080000000000
83.00000000000000000000,0.00006932929999999999
83.00000000000000000000,0.00006781930000000000
83.00000000000000000000,0.00006476410000000000
83.00000000000000000000,0.00006386830000000000
83.00000000000000000000,0.00006225390000000000
83.00000000000000000000,0.00005288650000000000
83.00000000000000000000,0.00003047740000000000
83.00000000000000000000,-0.00000137782000000000
83.00000000000000000000,-0.00002033930000000000
83.00000000000000000000,-0.00001361390000000000
83.00000000000000000000,0.00000950042000000000
83.00000000000000000000,0.00002892880000000000
83.00000000000000000000,0.00003957870000000000
83.00000000000000000000,0.00005360900000000000
83.00000000000000000000,0.00007518920000000000
83.00000000000000000000,0.00010061800000000000
83.00000000000000000000,0.00011618400000000000
83.00000000000000000000,0.00011743699999999999
83.00000000000000000000,0.00011334700000000000
83.00000000000000000000,0.00010884800000000000
84.00000000000000000000,0.00009909950000000000
84.00000000000000000000,0.00008583000000000000
84.00000000000000000000,0.00007318620000000000
84.00000000000000000000,0.00006139150000000000
84.00000000000000000000,0.00005003820000000000
84.00000000000000000000,0.00004009220000000000
84.00000000000000000000,0.00003361220000000000
84.00000000000000000000,0.00002932940000000000
84.00000000000000000000,0.00002397090000000000
84.00000000000000000000,0.00001980880000000000
84.00000000000000000000,0.00002051890000000000
84.00000000000000000000,0.00002232340000000000
84.00000000000000000000,0.00002144900000000000
84.00000000000000000000,0.00002201200000000000
84.00000000000000000000,0.00002491160000000000
84.00000000000000000000,0.00002610190000000000
84.00000000000000000000,0.00002697670000000000
84.00000000000000000000,0.00002368830000000000
84.00000000000000000000,0.00001845440000000000
84.00000000000000000000,0.00001315860000000000
85.00000000000000000000,0.00001159760000000000
85.00000000000000000000,0.00001398830000000000
85.00000000000000000000,0.00000940629000000000
85.00000000000000000000,-0.00000609514000000000
85.00000000000000000000,-0.00002584100000000000
85.00000000000000000000,-0.00004057670000000000
85.00000000000000000000,-0.00004017880000000000
85.00000000000000000000,-0.00002176730000000000
85.00000000000000000000,0.00000309940000000000
85.00000000000000000000,0.00002645530000000000
85.00000000000000000000,0.00004875050000000000
85.00000000000000000000,0.00006953380000000000
85.00000000000000000000,0.00008179259999999999
85.00000000000000000000,0.00008103500000000000
85.00000000000000000000,0.00007377910000000001
85.00000000000000000000,0.00007203629999999999
85.00000000000000000000,0.00008225610000000000
85.00000000000000000000,0.00010453799999999999
85.00000000000000000000,0.00012879200000000000
85.00000000000000000000,0.00013718500000000001
86.00000000000000000000,0.00011849600000000000
86.00000000000000000000,0.00008095230000000000
86.00000000000000000000,0.00004591290000000000
86.00000000000000000000,0.00002294460000000000
86.00000000000000000000,0.00000476459000000000
86.00000000000000000000,-0.00001105530000000000
86.00000000000000000000,-0.00001977450000000000
86.00000000000000000000,-0.00002177650000000000
86.00000000000000000000,-0.00001683160000000000
86.00000000000000000000,-0.00000380246000000000
86.00000000000000000000,0.00001902860000000000
86.00000000000000000000,0.00005056110000000000
86.00000000000000000000,0.00007998250000000000
86.00000000000000000000,0.00009727360000000000
86.00000000000000000000,0.00010132500000000000
86.00000000000000000000,0.00009675390000000000
86.00000000000000000000,0.00008463280000000000
86.00000000000000000000,0.00006590810000000000
86.00000000000000000000,0.00004590240000000000
86.00000000000000000000,0.00003142140000000000
87.00000000000000000000,0.00002377470000000000
87.00000000000000000000,0.00001852320000000000
87.00000000000000000000,0.00001365650000000000
87.00000000000000000000,0.00001245490000000000
87.00000000000000000000,0.00001569720000000000
87.00000000000000000000,0.00001868830000000000
87.00000000000000000000,0.00001868660000000000
87.00000000000000000000,0.00002010690000000000
87.00000000000000000000,0.00002481010000000000
87.00000000000000000000,0.00002430380000000000
87.00000000000000000000,0.00001993700000000000
87.00000000000000000000,0.00002092040000000000
87.00000000000000000000,0.00002411560000000000
87.00000000000000000000,0.00002676580000000000
87.00000000000000000000,0.00002985670000000000
87.00000000000000000000,0.00002931640000000000
87.00000000000000000000,0.00002840410000000000
87.00000000000000000000,0.00002803360000000000
87.00000000000000000000,0.00002837460000000000
87.00000000000000000000,0.00002400750000000000
88.00000000000000000000,0.00000770035000000000
88.00000000000000000000,-0.00001273820000000000
88.00000000000000000000,-0.00002339640000000000
88.00000000000000000000,-0.00002780760000000000
88.00000000000000000000,-0.00003922400000000000
88.00000000000000000000,-0.00005266120000000000
88.00000000000000000000,-0.00005212590000000000
88.00000000000000000000,-0.00003312290000000000
88.00000000000000000000,-0.00000930792000000000
88.00000000000000000000,0.00000746018000000000
88.00000000000000000000,0.00002234970000000000
88.00000000000000000000,0.00005022730000000000
88.00000000000000000000,0.00009191389999999999
88.00000000000000000000,0.00013552700000000001
88.00000000000000000000,0.00016063399999999999
88.00000000000000000000,0.00015539899999999999
88.00000000000000000000,0.00013637499999999999
88.00000000000000000000,0.00011940100000000000
88.00000000000000000000,0.00009818729999999999
88.00000000000000000000,0.00007613060000000001
89.00000000000000000000,0.00006237410000000000
89.00000000000000000000,0.00005404080000000000
89.00000000000000000000,0.00006056870000000000
89.00000000000000000000,0.00009304219999999999
89.00000000000000000000,0.00013860200000000001
89.00000000000000000000,0.00016877799999999999
89.00000000000000000000,0.00016911600000000000
89.00000000000000000000,0.00015504900000000001
89.00000000000000000000,0.00014250200000000000
89.00000000000000000000,0.00012869300000000001
89.00000000000000000000,0.00010638200000000000
89.00000000000000000000,0.00007380810000000000
89.00000000000000000000,0.00004018470000000000
89.00000000000000000000,0.00001178430000000000
89.00000000000000000000,-0.00000975786000000000
89.00000000000000000000,-0.00002142460000000000
89.00000000000000000000,-0.00002002310000000000
89.00000000000000000000,-0.00000818902000000000
89.00000000000000000000,0.00000885995000000000
89.00000000000000000000,0.00002561620000000000
90.00000000000000000000,0.00003700350000000000
90.00000000000000000000,0.00004344310000000000
90.00000000000000000000,0.00004901770000000000
90.00000000000000000000,0.00004995320000000000
90.00000000000000000000,0.00004141130000000000
90.00000000000000000000,0.00003151870000000000
90.00000000000000000000,0.00002023850000000000
90.00000000000000000000,-0.00000121901000000000
90.00000000000000000000,-0.00002570830000000000
90.00000000000000000000,-0.00003342630000000000
90.00000000000000000000,-0.00002660820000000000
90.00000000000000000000,-0.00003320160000000000
90.00000000000000000000,-0.00006035820000000000
90.00000000000000000000,-0.00007996939999999999
90.00000000000000000000,-0.00008260340000000000
90.00000000000000000000,-0.00007661990000000000
90.00000000000000000000,-0.00006553670000000000
90.00000000000000000000,-0.00004470490000000000
90.00000000000000000000,-0.00000975201000000000
90.00000000000000000000,0.00003142480000000000
91.00000000000000000000,0.00006813790000000000
91.00000000000000000000,0.00009864770000000000
91.00000000000000000000,0.00012417999999999999
91.00000000000000000000,0.00013637799999999999
91.00000000000000000000,0.00013119900000000000
91.00000000000000000000,0.00011949000000000000
91.00000000000000000000,0.00011319900000000000
91.00000000000000000000,0.00010848600000000000
91.00000000000000000000,0.00010232000000000000
91.00000000000000000000,0.00009540879999999999
91.00000000000000000000,0.00009011340000000000
91.00000000000000000000,0.00008771379999999999
91.00000000000000000000,0.00008379550000000000
91.00000000000000000000,0.00007503150000000000
91.00000000000000000000,0.00006437950000000000
91.00000000000000000000,0.00005270530000000000
91.00000000000000000000,0.00004159950000000000
91.00000000000000000000,0.00003565500000000000
91.00000000000000000000,0.00003325050000000000
91.00000000000000000000,0.00002990210000000000
92.00000000000000000000,0.00002224540000000000
92.00000000000000000000,0.00001424890000000000
92.00000000000000000000,0.00000925902000000000
92.00000000000000000000,0.00000868372000000000
92.00000000000000000000,0.00001000690000000000
92.00000000000000000000,0.00000857615000000000
92.00000000000000000000,0.00000611071000000000
92.00000000000000000000,0.00000458327000000000
92.00000000000000000000,0.00000584508000000000
92.00000000000000000000,0.00000995848000000000
92.00000000000000000000,0.00001226630000000000
92.00000000000000000000,0.00001001980000000000
92.00000000000000000000,0.00000681198000000000
92.00000000000000000000,0.00000470617000000000
92.00000000000000000000,0.00000620409000000000
92.00000000000000000000,0.00001192920000000000
92.00000000000000000000,0.00001569270000000000
92.00000000000000000000,0.00001586250000000000
92.00000000000000000000,0.00001803710000000000
92.00000000000000000000,0.00002379710000000000
93.00000000000000000000,0.00002867470000000000
93.00000000000000000000,0.00003321080000000000
93.00000000000000000000,0.00003581910000000000
93.00000000000000000000,0.00003803430000000000
93.00000000000000000000,0.00004190140000000000
93.00000000000000000000,0.00004282960000000000
93.00000000000000000000,0.00004455890000000000
93.00000000000000000000,0.00004104250000000000
93.00000000000000000000,0.00002412400000000000
93.00000000000000000000,0.00000094470500000000
93.00000000000000000000,-0.00001256960000000000
93.00000000000000000000,-0.00000594474000000000
93.00000000000000000000,0.00001455720000000000
93.00000000000000000000,0.00002637080000000000
93.00000000000000000000,0.00000942308000000000
93.00000000000000000000,-0.00001633780000000000
93.00000000000000000000,-0.00001372010000000000
93.00000000000000000000,0.00001523350000000000
93.00000000000000000000,0.00003724410000000000
93.00000000000000000000,0.00003293430000000000
94.00000000000000000000,0.00000598404000000000
94.00000000000000000000,-0.00002238790000000000
94.00000000000000000000,-0.00003226390000000000
94.00000000000000000000,-0.00002305550000000000
94.00000000000000000000,-0.00000394797000000000
94.00000000000000000000,0.00003427550000000000
94.00000000000000000000,0.00010287300000000000
94.00000000000000000000,0.00017548299999999999
94.00000000000000000000,0.00022896799999999999
94.00000000000000000000,0.00026312900000000002
94.00000000000000000000,0.00027284100000000001
94.00000000000000000000,0.00026049700000000000
94.00000000000000000000,0.00023403399999999999
94.00000000000000000000,0.00019897000000000000
94.00000000000000000000,0.00015829700000000001
94.00000000000000000000,0.00011859400000000000
94.00000000000000000000,0.00008683599999999999
94.00000000000000000000,0.00006381260000000001
94.00000000000000000000,0.00004818780000000000
94.00000000000000000000,0.00003759860000000000
95.00000000000000000000,0.00002854520000000000
95.00000000000000000000,0.00001751660000000000
95.00000000000000000000,0.00000777517000000000
95.00000000000000000000,0.00000224368000000000
95.00000000000000000000,-0.00000575739000000000
95.00000000000000000000,-0.00002568440000000000
95.00000000000000000000,-0.00004886270000000000
95.00000000000000000000,-0.00005951320000000000
95.00000000000000000000,-0.00005644820000000000
95.00000000000000000000,-0.00004797450000000000
95.00000000000000000000,-0.00003378800000000000
95.00000000000000000000,-0.00001164710000000000
95.00000000000000000000,0.00001025560000000000
95.00000000000000000000,0.00002471390000000000
95.00000000000000000000,0.00002851840000000000
95.00000000000000000000,0.00002653130000000000
95.00000000000000000000,0.00002570860000000000
95.00000000000000000000,0.00002747670000000000
95.00000000000000000000,0.00002813540000000000
95.00000000000000000000,0.00001375070000000000
96.00000000000000000000,-0.00001390500000000000
96.00000000000000000000,-0.00004416040000000000
96.00000000000000000000,-0.00006748380000000001
96.00000000000000000000,-0.00007471070000000000
96.00000000000000000000,-0.00006583320000000001
96.00000000000000000000,-0.00004063220000000000
96.00000000000000000000,-0.00000676427000000000
96.00000000000000000000,0.00001556420000000000
96.00000000000000000000,0.00001433420000000000
96.00000000000000000000,0.00000520810000000000
96.00000000000000000000,0.00001552280000000000
96.00000000000000000000,0.00005584850000000000
96.00000000000000000000,0.00011002600000000001
96.00000000000000000000,0.00015341700000000001
96.00000000000000000000,0.00017060700000000000
96.00000000000000000000,0.00016313300000000001
96.00000000000000000000,0.00014725900000000001
96.00000000000000000000,0.00013834700000000001
96.00000000000000000000,0.00013846700000000000
96.00000000000000000000,0.00013929900000000001
97.00000000000000000000,0.00013658600000000001
97.00000000000000000000,0.00012787100000000000
97.00000000000000000000,0.00011269500000000000
97.00000000000000000000,0.00009602440000000000
97.00000000000000000000,0.00007973000000000000
97.00000000000000000000,0.00006582860000000000
97.00000000000000000000,0.00004863500000000000
97.00000000000000000000,0.00002705060000000000
97.00000000000000000000,0.00000922325000000000
97.00000000000000000000,0.00000176726000000000
97.00000000000000000000,0.00000091249500000000
97.00000000000000000000,0.00000015054600000000
97.00000000000000000000,-0.00000004374100000000
97.00000000000000000000,0.00000001309230000000
97.00000000000000000000,0.00000161053000000000
97.00000000000000000000,0.00000377113000000000
97.00000000000000000000,0.00000674259000000000
97.00000000000000000000,0.00001042760000000000
97.00000000000000000000,0.00001353290000000000
97.00000000000000000000,0.00001327720000000000
98.00000000000000000000,0.00001054090000000000
98.00000000000000000000,0.00000645906000000000
98.00000000000000000000,0.00000241552000000000
98.00000000000000000000,0.00000069553800000000
98.00000000000000000000,-0.00000373719000000000
98.00000000000000000000,-0.00000985850000000000
98.00000000000000000000,-0.00001837860000000000
98.00000000000000000000,-0.00003154550000000000
98.00000000000000000000,-0.00003759910000000000
98.00000000000000000000,-0.00004584090000000000
98.00000000000000000000,-0.00006628180000000000
98.00000000000000000000,-0.00008233030000000000
98.00000000000000000000,-0.00007255680000000000
98.00000000000000000000,-0.00003661810000000000
98.00000000000000000000,0.00000328790000000000
98.00000000000000000000,0.00003861830000000000
98.00000000000000000000,0.00007216290000000000
98.00000000000000000000,0.00010136699999999999
98.00000000000000000000,0.00012345900000000000
98.00000000000000000000,0.00014185599999999999
99.00000000000000000000,0.00015482300000000000
99.00000000000000000000,0.00015247800000000000
99.00000000000000000000,0.00012367699999999999
99.00000000000000000000,0.00007489809999999999
99.00000000000000000000,0.00003320630000000000
99.00000000000000000000,0.00001589880000000000
99.00000000000000000000,0.00001119560000000000
99.00000000000000000000,0.00000334434000000000
99.00000000000000000000,-0.00000425438000000000
99.00000000000000000000,0.00000648592000000000
99.00000000000000000000,0.00005090280000000000
99.00000000000000000000,0.00012074200000000000
99.00000000000000000000,0.00018913400000000001
99.00000000000000000000,0.00023194800000000000
99.00000000000000000000,0.00023944400000000001
99.00000000000000000000,0.00021540700000000001
99.00000000000000000000,0.00017107000000000000
99.00000000000000000000,0.00012118200000000001
99.00000000000000000000,0.00008068019999999999
99.00000000000000000000,0.00005458840000000000
100.00000000000000000000,0.00003734270000000000
100.00000000000000000000,0.00002461410000000000
100.00000000000000000000,0.00001868300000000000
100.00000000000000000000,0.00002131440000000000
100.00000000000000000000,0.00002779460000000000
100.00000000000000000000,0.00003192790000000000
100.00000000000000000000,0.00003125140000000000
100.00000000000000000000,0.00002578310000000000
100.00000000000000000000,0.00001951340000000000
100.00000000000000000000,0.00001533510000000000
100.00000000000000000000,0.00001145110000000000
100.00000000000000000000,0.00000602276000000000
100.00000000000000000000,-0.00000156427000000000
100.00000000000000000000,-0.00001040760000000000
100.00000000000000000000,-0.00001911770000000000
100.00000000000000000000,-0.00002833340000000000
100.00000000000000000000,-0.00004053790000000000
100.00000000000000000000,-0.00005092340000000000
100.00000000000000000000,-0.00004666250000000000
100.00000000000000000000,-0.00002629420000000000
101.00000000000000000000,-0.00000067495400000000
101.00000000000000000000,0.00002685020000000000
101.00000000000000000000,0.00005561820000000000
101.00000000000000000000,0.00007516840000000000
101.00000000000000000000,0.00008122790000000000
101.00000000000000000000,0.00007395240000000000
101.00000000000000000000,0.00005418390000000000
101.00000000000000000000,0.00003147610000000000
101.00000000000000000000,0.00001262180000000000
101.00000000000000000000,-0.00000629761000000000
101.00000000000000000000,-0.00002393630000000000
101.00000000000000000000,-0.00003836460000000000
101.00000000000000000000,-0.00004826820000000000
101.00000000000000000000,-0.00005288570000000000
101.00000000000000000000,-0.00006396119999999999
101.00000000000000000000,-0.00007906990000000001
101.00000000000000000000,-0.00007130129999999999
101.00000000000000000000,-0.00002035990000000000
101.00000000000000000000,0.00005397770000000000
101.00000000000000000000,0.00011634600000000000
102.00000000000000000000,0.00015346199999999999
102.00000000000000000000,0.00017338299999999999
102.00000000000000000000,0.00018525500000000000
102.00000000000000000000,0.00019484799999999999
102.00000000000000000000,0.00020434800000000000
102.00000000000000000000,0.00020013299999999999
102.00000000000000000000,0.00017158700000000001
102.00000000000000000000,0.00013698200000000001
102.00000000000000000000,0.00011316400000000000
102.00000000000000000000,0.00009923990000000000
102.00000000000000000000,0.00009015790000000001
102.00000000000000000000,0.00008061549999999999
102.00000000000000000000,0.00006814390000000000
102.00000000000000000000,0.00005439370000000000
102.00000000000000000000,0.00003948080000000000
102.00000000000000000000,0.00002323220000000000
102.00000000000000000000,0.00001377850000000000
102.00000000000000000000,0.00000648295000000000
102.00000000000000000000,-0.00000179083000000000
102.00000000000000000000,-0.00000471795000000000
103.00000000000000000000,-0.00000367789000000000
103.00000000000000000000,-0.00000947139000000000
103.00000000000000000000,-0.00002471660000000000
103.00000000000000000000,-0.00003830470000000000
103.00000000000000000000,-0.00003657080000000000
103.00000000000000000000,-0.00001925130000000000
103.00000000000000000000,-0.00000315003000000000
103.00000000000000000000,0.00000164753000000000
103.00000000000000000000,0.00000606447000000000
103.00000000000000000000,0.00001936420000000000
103.00000000000000000000,0.00002892620000000000
103.00000000000000000000,0.00003278640000000000
103.00000000000000000000,0.00004673250000000000
103.00000000000000000000,0.00007282370000000000
103.00000000000000000000,0.00009551210000000000
103.00000000000000000000,0.00010531000000000001
103.00000000000000000000,0.00010363200000000000
103.00000000000000000000,0.00009636910000000001
103.00000000000000000000,0.00008583200000000000
103.00000000000000000000,0.00007168770000000000
104.00000000000000000000,0.00005449780000000000
104.00000000000000000000,0.00003351300000000000
104.00000000000000000000,0.00000910502000000000
104.00000000000000000000,-0.00002785410000000000
104.00000000000000000000,-0.00006475190000000000
104.00000000000000000000,-0.00007074640000000000
104.00000000000000000000,-0.00004836290000000000
104.00000000000000000000,-0.00002063300000000000
104.00000000000000000000,-0.00000277929000000000
104.00000000000000000000,0.00000988184000000000
104.00000000000000000000,0.00002348820000000000
104.00000000000000000000,0.00003484300000000000
104.00000000000000000000,0.00004200300000000000
104.00000000000000000000,0.00004961240000000000
104.00000000000000000000,0.00006379490000000000
104.00000000000000000000,0.00008398350000000001
104.00000000000000000000,0.00010590300000000001
104.00000000000000000000,0.00012256600000000001
104.00000000000000000000,0.00013012899999999999
104.00000000000000000000,0.00012638800000000001
105.00000000000000000000,0.00011150399999999999
105.00000000000000000000,0.00009203149999999999
105.00000000000000000000,0.00007314770000000000
105.00000000000000000000,0.00005726390000000000
105.00000000000000000000,0.00003920150000000000
105.00000000000000000000,0.00002136320000000000
105.00000000000000000000,0.00000711130000000000
105.00000000000000000000,-0.00000507723000000000
105.00000000000000000000,-0.00001100910000000000
105.00000000000000000000,-0.00000856055000000000
105.00000000000000000000,-0.00000453803000000000
105.00000000000000000000,-0.00000513609000000000
105.00000000000000000000,-0.00000538447000000000
105.00000000000000000000,-0.00000084578700000000
105.00000000000000000000,0.00001085600000000000
105.00000000000000000000,0.00002308690000000000
105.00000000000000000000,0.00003201780000000000
105.00000000000000000000,0.00003930710000000000
105.00000000000000000000,0.00004453090000000000
105.00000000000000000000,0.00004099030000000000
106.00000000000000000000,0.00002677700000000000
106.00000000000000000000,0.00001028460000000000
106.00000000000000000000,-0.00000254266000000000
106.00000000000000000000,-0.00001213570000000000
106.00000000000000000000,-0.00001830570000000000
106.00000000000000000000,-0.00001520110000000000
106.00000000000000000000,-0.00000056061000000000
106.00000000000000000000,0.00002507330000000000
106.00000000000000000000,0.00005674680000000000
106.00000000000000000000,0.00008801880000000000
106.00000000000000000000,0.00010629800000000000
106.00000000000000000000,0.00010537700000000000
106.00000000000000000000,0.00008059890000000000
106.00000000000000000000,0.00004281770000000000
106.00000000000000000000,0.00001848090000000000
106.00000000000000000000,0.00000737049000000000
106.00000000000000000000,0.00000696051000000000
106.00000000000000000000,0.00000883844000000000
106.00000000000000000000,0.00000262125000000000
106.00000000000000000000,-0.00001781510000000000
107.00000000000000000000,-0.00004634960000000000
107.00000000000000000000,-0.00006657990000000000
107.00000000000000000000,-0.00006298380000000001
107.00000000000000000000,-0.00002895950000000000
107.00000000000000000000,0.00002741070000000000
107.00000000000000000000,0.00009320750000000000
107.00000000000000000000,0.00015364099999999999
107.00000000000000000000,0.00019763499999999999
107.00000000000000000000,0.00021529300000000000
107.00000000000000000000,0.00021042700000000001
107.00000000000000000000,0.00019642800000000001
107.00000000000000000000,0.00018293100000000000
107.00000000000000000000,0.00016500799999999999
107.00000000000000000000,0.00013866700000000001
107.00000000000000000000,0.00010937700000000001
107.00000000000000000000,0.00008519280000000000
107.00000000000000000000,0.00006464860000000000
107.00000000000000000000,0.00004301140000000000
107.00000000000000000000,0.00002351250000000000
107.00000000000000000000,0.00001203200000000000
108.00000000000000000000,0.00000886904000000000
108.00000000000000000000,0.00001247650000000000
108.00000000000000000000,0.00001849830000000000
108.00000000000000000000,0.00002262530000000000
108.00000000000000000000,0.00002115470000000000
108.00000000000000000000,0.00001481910000000000
108.00000000000000000000,0.00001012890000000000
108.00000000000000000000,0.00000461017000000000
108.00000000000000000000,-0.00001505560000000000
108.00000000000000000000,-0.00004406150000000000
108.00000000000000000000,-0.00005870870000000000
108.00000000000000000000,-0.00005366720000000000
108.00000000000000000000,-0.00004290910000000000
108.00000000000000000000,-0.00003322470000000000
108.00000000000000000000,-0.00001593720000000000
108.00000000000000000000,0.00001479840000000000
108.00000000000000000000,0.00005338100000000000
108.00000000000000000000,0.00008726390000000000
108.00000000000000000000,0.00010973200000000000
108.00000000000000000000,0.00012168400000000000
109.00000000000000000000,0.00012807000000000001
109.00000000000000000000,0.00012550800000000001
109.00000000000000000000,0.00010848400000000000
109.00000000000000000000,0.00007772040000000000
109.00000000000000000000,0.00005143620000000000
109.00000000000000000000,0.00003075320000000000
109.00000000000000000000,-0.00000563624000000000
109.00000000000000000000,-0.00005737410000000000
109.00000000000000000000,-0.00009729700000000000
109.00000000000000000000,-0.00009975790000000000
109.00000000000000000000,-0.00008026840000000000
109.00000000000000000000,-0.00007821010000000001
109.00000000000000000000,-0.00008515770000000001
109.00000000000000000000,-0.00005723990000000000
109.00000000000000000000,0.00000158936000000000
109.00000000000000000000,0.00005798730000000000
109.00000000000000000000,0.00009696900000000000
109.00000000000000000000,0.00012903599999999999
109.00000000000000000000,0.00016058600000000000
109.00000000000000000000,0.00018644000000000001
110.00000000000000000000,0.00020571500000000000
110.00000000000000000000,0.00021828599999999999
110.00000000000000000000,0.00021519300000000000
110.00000000000000000000,0.00019307400000000000
110.00000000000000000000,0.00016034700000000000
110.00000000000000000000,0.00012364400000000001
110.00000000000000000000,0.00008943210000000000
110.00000000000000000000,0.00006144950000000000
110.00000000000000000000,0.00004159710000000000
110.00000000000000000000,0.00002891070000000000
110.00000000000000000000,0.00001960800000000000
110.00000000000000000000,0.00000987312000000000
110.00000000000000000000,-0.00000221561000000000
110.00000000000000000000,-0.00001528360000000000
110.00000000000000000000,-0.00002568850000000000
110.00000000000000000000,-0.00002889850000000000
110.00000000000000000000,-0.00002490070000000000
110.00000000000000000000,-0.00002099820000000000
110.00000000000000000000,-0.00001705970000000000
110.00000000000000000000,-0.00001384320000000000
111.00000000000000000000,-0.00001130270000000000
111.00000000000000000000,-0.00001217660000000000
111.00000000000000000000,-0.00002081890000000000
111.00000000000000000000,-0.00003347640000000000
111.00000000000000000000,-0.00004188230000000000
111.00000000000000000000,-0.00004163660000000000
111.00000000000000000000,-0.00003717220000000000
111.00000000000000000000,-0.00002821470000000000
111.00000000000000000000,-0.00001082960000000000
111.00000000000000000000,0.00001368180000000000
111.00000000000000000000,0.00003921510000000000
111.00000000000000000000,0.00006350230000000000
111.00000000000000000000,0.00008355900000000000
111.00000000000000000000,0.00009711400000000001
111.00000000000000000000,0.00010603800000000000
111.00000000000000000000,0.00010408600000000001
111.00000000000000000000,0.00008945550000000000
111.00000000000000000000,0.00007643580000000000
111.00000000000000000000,0.00006995860000000000
111.00000000000000000000,0.00005777780000000000
112.00000000000000000000,0.00003248920000000000
112.00000000000000000000,0.00001237280000000000
112.00000000000000000000,0.00000501379000000000
112.00000000000000000000,0.00000486753000000000
112.00000000000000000000,0.00001055040000000000
112.00000000000000000000,0.00000684668000000000
112.00000000000000000000,-0.00002102430000000000
112.00000000000000000000,-0.00005810750000000000
112.00000000000000000000,-0.00007332740000000000
112.00000000000000000000,-0.00005596430000000000
112.00000000000000000000,-0.00001858710000000000
112.00000000000000000000,0.00002504420000000000
112.00000000000000000000,0.00007082670000000000
112.00000000000000000000,0.00011321300000000000
112.00000000000000000000,0.00014323200000000000
112.00000000000000000000,0.00015895500000000001
112.00000000000000000000,0.00016600400000000001
112.00000000000000000000,0.00016495500000000000
112.00000000000000000000,0.00015963600000000000
112.00000000000000000000,0.00015862900000000000
113.00000000000000000000,0.00016551200000000001
113.00000000000000000000,0.00017262000000000001
113.00000000000000000000,0.00016832600000000000
113.00000000000000000000,0.00014926100000000001
113.00000000000000000000,0.00012188000000000001
113.00000000000000000000,0.00009396350000000000
113.00000000000000000000,0.00006637100000000001
113.00000000000000000000,0.00004007710000000000
113.00000000000000000000,0.00001975540000000000
113.00000000000000000000,0.00000738410000000000
113.00000000000000000000,0.00000281933000000000
113.00000000000000000000,0.00000379640000000000
113.00000000000000000000,0.00000585105000000000
113.00000000000000000000,0.00000521775000000000
113.00000000000000000000,-0.00000073870100000000
113.00000000000000000000,-0.00001019110000000000
113.00000000000000000000,-0.00001891340000000000
113.00000000000000000000,-0.00002636410000000000
113.00000000000000000000,-0.00003361220000000000
113.00000000000000000000,-0.00003705440000000000
114.00000000000000000000,-0.00003108770000000000
114.00000000000000000000,-0.00001819120000000000
114.00000000000000000000,-0.00000782672000000000
114.00000000000000000000,-0.00000269367000000000
114.00000000000000000000,0.00000247556000000000
114.00000000000000000000,0.00001086280000000000
114.00000000000000000000,0.00001668010000000000
114.00000000000000000000,0.00001317430000000000
114.00000000000000000000,0.00000697898000000000
114.00000000000000000000,0.00000998193000000000
114.00000000000000000000,0.00001925260000000000
114.00000000000000000000,0.00002669120000000000
114.00000000000000000000,0.00003336240000000000
114.00000000000000000000,0.00004070200000000000
114.00000000000000000000,0.00003418320000000000
114.00000000000000000000,0.00000270502000000000
114.00000000000000000000,-0.00003394740000000000
114.00000000000000000000,-0.00006751510000000000
114.00000000000000000000,-0.00009111550000000001
114.00000000000000000000,-0.00008073870000000001
115.00000000000000000000,-0.00003678750000000000
115.00000000000000000000,0.00001911800000000000
115.00000000000000000000,0.00006264460000000001
115.00000000000000000000,0.00008133240000000000
115.00000000000000000000,0.00008484320000000000
115.00000000000000000000,0.00009600480000000000
115.00000000000000000000,0.00011938000000000000
115.00000000000000000000,0.00013852000000000000
115.00000000000000000000,0.00014241100000000000
115.00000000000000000000,0.00013890400000000000
115.00000000000000000000,0.00013820299999999999
115.00000000000000000000,0.00014133400000000001
115.00000000000000000000,0.00014772700000000000
115.00000000000000000000,0.00015034400000000001
115.00000000000000000000,0.00013999900000000000
115.00000000000000000000,0.00011891900000000000
115.00000000000000000000,0.00009511430000000001
115.00000000000000000000,0.00007088979999999999
115.00000000000000000000,0.00004410840000000000
115.00000000000000000000,0.00002606840000000000
116.00000000000000000000,0.00001808200000000000
116.00000000000000000000,0.00001009920000000000
116.00000000000000000000,0.00000719068000000000
116.00000000000000000000,0.00000564267000000000
116.00000000000000000000,0.00000549181000000000
116.00000000000000000000,0.00000715317000000000
116.00000000000000000000,0.00000661595000000000
116.00000000000000000000,0.00000428992000000000
116.00000000000000000000,0.00000089619900000000
116.00000000000000000000,-0.00000030799600000000
116.00000000000000000000,0.00000340888000000000
116.00000000000000000000,0.00000853354000000000
116.00000000000000000000,0.00000978567000000000
116.00000000000000000000,0.00000992794000000000
116.00000000000000000000,0.00001286790000000000
116.00000000000000000000,0.00001644550000000000
116.00000000000000000000,0.00001257880000000000
116.00000000000000000000,-0.00000023357200000000
116.00000000000000000000,-0.00000975623000000000
116.00000000000000000000,-0.00000445060000000000
117.00000000000000000000,0.00001181080000000000
117.00000000000000000000,0.00003003860000000000
117.00000000000000000000,0.00004480670000000000
117.00000000000000000000,0.00005625520000000000
117.00000000000000000000,0.00006922420000000000
117.00000000000000000000,0.00008264120000000000
117.00000000000000000000,0.00007649440000000000
117.00000000000000000000,0.00005093120000000000
117.00000000000000000000,0.00003417530000000000
117.00000000000000000000,0.00003194430000000000
117.00000000000000000000,0.00003288040000000000
117.00000000000000000000,0.00003208720000000000
117.00000000000000000000,0.00003215430000000000
117.00000000000000000000,0.00002935170000000000
117.00000000000000000000,0.00002162320000000000
117.00000000000000000000,0.00001223920000000000
117.00000000000000000000,0.00000489450000000000
117.00000000000000000000,0.00000276833000000000
117.00000000000000000000,0.00001130410000000000
117.00000000000000000000,0.00003090510000000000
118.00000000000000000000,0.00005057930000000000
118.00000000000000000000,0.00005930740000000000
118.00000000000000000000,0.00005768000000000000
118.00000000000000000000,0.00005961000000000000
118.00000000000000000000,0.00007351430000000000
118.00000000000000000000,0.00009085720000000000
118.00000000000000000000,0.00009609519999999999
118.00000000000000000000,0.00008493170000000000
118.00000000000000000000,0.00006535910000000000
118.00000000000000000000,0.00005307710000000000
118.00000000000000000000,0.00005866690000000000
118.00000000000000000000,0.00007773830000000000
118.00000000000000000000,0.00009881860000000000
118.00000000000000000000,0.00010857300000000001
118.00000000000000000000,0.00010526200000000000
118.00000000000000000000,0.00009407960000000001
118.00000000000000000000,0.00007503270000000000
118.00000000000000000000,0.00005669380000000000
118.00000000000000000000,0.00004324620000000000
118.00000000000000000000,0.00003027590000000000
119.00000000000000000000,0.00001722350000000000
119.00000000000000000000,0.00000905704000000000
119.00000000000000000000,0.00000560382000000000
119.00000000000000000000,0.00000182303000000000
119.00000000000000000000,-0.00000377012000000000
119.00000000000000000000,-0.00000709959000000000
119.00000000000000000000,-0.00000405236000000000
119.00000000000000000000,0.00000102365000000000
119.00000000000000000000,0.00000018739000000000
119.00000000000000000000,-0.00000647649000000000
119.00000000000000000000,-0.00000756399000000000
119.00000000000000000000,0.00000159250000000000
119.00000000000000000000,0.00001157180000000000
119.00000000000000000000,0.00001408570000000000
119.00000000000000000000,0.00001491980000000000
119.00000000000000000000,0.00001674530000000000
119.00000000000000000000,0.00001599200000000000
119.00000000000000000000,0.00001590170000000000
119.00000000000000000000,0.00001767530000000000
119.00000000000000000000,0.00001736410000000000
120.00000000000000000000,0.00001952720000000000
120.00000000000000000000,0.00003509390000000000
120.00000000000000000000,0.00006535430000000001
120.00000000000000000000,0.00009956000000000000
120.00000000000000000000,0.00012652500000000000
120.00000000000000000000,0.00013763100000000001
120.00000000000000000000,0.00013316300000000000
120.00000000000000000000,0.00012127200000000000
120.00000000000000000000,0.00010611500000000000
120.00000000000000000000,0.00008811740000000000
120.00000000000000000000,0.00007137350000000000
120.00000000000000000000,0.00005699660000000000
120.00000000000000000000,0.00004342770000000000
120.00000000000000000000,0.00003119100000000000
120.00000000000000000000,0.00001967300000000000
120.00000000000000000000,0.00001055130000000000
120.00000000000000000000,0.00000675026000000000
120.00000000000000000000,0.00000686122000000000
120.00000000000000000000,0.00000635321000000000
120.00000000000000000000,0.00000753851000000000
121.00000000000000000000,0.00001144750000000000
121.00000000000000000000,0.00001520350000000000
121.00000000000000000000,0.00001793460000000000
121.00000000000000000000,0.00002225220000000000
121.00000000000000000000,0.00003090640000000000
121.00000000000000000000,0.00003967650000000000
121.00000000000000000000,0.00004718430000000000
121.00000000000000000000,0.00004691010000000000
121.00000000000000000000,0.00003997820000000000
121.00000000000000000000,0.00003467260000000000
121.00000000000000000000,0.00003443090000000000
121.00000000000000000000,0.00004168950000000000
121.00000000000000000000,0.00004551780000000000
121.00000000000000000000,0.00004325770000000000
121.00000000000000000000,0.00003914910000000000
121.00000000000000000000,0.00003812900000000000
121.00000000000000000000,0.00003966110000000000
121.00000000000000000000,0.00003774930000000000
121.00000000000000000000,0.00002721920000000000
121.00000000000000000000,0.00001197210000000000
122.00000000000000000000,0.00000293842000000000
122.00000000000000000000,0.00000619598000000000
122.00000000000000000000,0.00001613830000000000
122.00000000000000000000,0.00002585470000000000
122.00000000000000000000,0.00003346260000000000
122.00000000000000000000,0.00002951780000000000
122.00000000000000000000,0.00000710228000000000
122.00000000000000000000,-0.00002076300000000000
122.00000000000000000000,-0.00003442900000000000
122.00000000000000000000,-0.00002724930000000000
122.00000000000000000000,-0.00000579452000000000
122.00000000000000000000,0.00001309130000000000
122.00000000000000000000,0.00002464430000000000
122.00000000000000000000,0.00004147770000000000
122.00000000000000000000,0.00007798900000000000
122.00000000000000000000,0.00012972299999999999
122.00000000000000000000,0.00017858500000000001
122.00000000000000000000,0.00020678000000000000
122.00000000000000000000,0.00021196100000000001
122.00000000000000000000,0.00019799999999999999
123.00000000000000000000,0.00017352000000000001
123.00000000000000000000,0.00014771399999999999
123.00000000000000000000,0.00012258300000000000
123.00000000000000000000,0.00010196699999999999
123.00000000000000000000,0.00008991900000000000
123.00000000000000000000,0.00008093460000000000
123.00000000000000000000,0.00006865650000000000
123.00000000000000000000,0.00005286550000000000
123.00000000000000000000,0.00003579110000000000
123.00000000000000000000,0.00002175820000000000
123.00000000000000000000,0.00001104710000000000
123.00000000000000000000,0.00000177697000000000
123.00000000000000000000,-0.00000484621000000000
123.00000000000000000000,-0.00000400293000000000
123.00000000000000000000,-0.00000024782700000000
123.00000000000000000000,0.00000111273000000000
123.00000000000000000000,0.00000208112000000000
123.00000000000000000000,0.00000321775000000000
123.00000000000000000000,0.00000194987000000000
123.00000000000000000000,-0.00000043337000000000
124.00000000000000000000,-0.00000110859000000000
124.00000000000000000000,0.00000011629700000000
124.00000000000000000000,0.00000041703600000000
124.00000000000000000000,-0.00000685131000000000
124.00000000000000000000,-0.00002694890000000000
124.00000000000000000000,-0.00005425480000000000
124.00000000000000000000,-0.00007642750000000000
124.00000000000000000000,-0.00008475910000000000
124.00000000000000000000,-0.00008496890000000000
124.00000000000000000000,-0.00007879780000000000
124.00000000000000000000,-0.00006358240000000000
124.00000000000000000000,-0.00003930410000000000
124.00000000000000000000,-0.00000516661000000000
124.00000000000000000000,0.00003961830000000000
124.00000000000000000000,0.00008923220000000000
124.00000000000000000000,0.00013283300000000001
124.00000000000000000000,0.00016325500000000001
124.00000000000000000000,0.00017759899999999999
124.00000000000000000000,0.00017426799999999999
124.00000000000000000000,0.00015224100000000001
125.00000000000000000000,0.00011639000000000000
125.00000000000000000000,0.00007719850000000000
125.00000000000000000000,0.00005004490000000000
125.00000000000000000000,0.00004071600000000000
125.00000000000000000000,0.00004218880000000000
125.00000000000000000000,0.00004305030000000000
125.00000000000000000000,0.00004463910000000000
125.00000000000000000000,0.00004792280000000000
125.00000000000000000000,0.00004891890000000000
125.00000000000000000000,0.00005100080000000000
125.00000000000000000000,0.00005189420000000000
125.00000000000000000000,0.00003738700000000000
125.00000000000000000000,0.00000814680000000000
125.00000000000000000000,-0.00002560840000000000
125.00000000000000000000,-0.00004800060000000000
125.00000000000000000000,-0.00004842130000000000
125.00000000000000000000,-0.00004456330000000000
125.00000000000000000000,-0.00005445960000000000
125.00000000000000000000,-0.00007185850000000000
125.00000000000000000000,-0.00006782870000000000
126.00000000000000000000,-0.00003076780000000000
126.00000000000000000000,0.00002217060000000000
126.00000000000000000000,0.00006205690000000000
126.00000000000000000000,0.00006813170000000000
126.00000000000000000000,0.00005084130000000000
126.00000000000000000000,0.00004581300000000000
126.00000000000000000000,0.00006889870000000000
126.00000000000000000000,0.00010536400000000000
126.00000000000000000000,0.00013745300000000000
126.00000000000000000000,0.00015906399999999999
126.00000000000000000000,0.00017422900000000000
126.00000000000000000000,0.00017827800000000000
126.00000000000000000000,0.00017078199999999999
126.00000000000000000000,0.00016179700000000001
126.00000000000000000000,0.00015311400000000001
126.00000000000000000000,0.00014234499999999999
126.00000000000000000000,0.00013253599999999999
126.00000000000000000000,0.00011910500000000001
126.00000000000000000000,0.00010061400000000000
126.00000000000000000000,0.00008121440000000000
127.00000000000000000000,0.00006034270000000000
127.00000000000000000000,0.00003967280000000000
127.00000000000000000000,0.00002187280000000000
127.00000000000000000000,0.00001246570000000000
127.00000000000000000000,0.00000975083000000000
127.00000000000000000000,0.00000627510000000000
127.00000000000000000000,-0.00000042353300000000
127.00000000000000000000,-0.00000601056000000000
127.00000000000000000000,-0.00000912506000000000
127.00000000000000000000,-0.00001413060000000000
127.00000000000000000000,-0.00001718830000000000
