Frame,EMG1
1.00000000000000000000,0.00003862580000000000
1.00000000000000000000,0.00003877840000000000
1.00000000000000000000,0.00004038090000000000
1.00000000000000000000,0.00003811910000000000
1.00000000000000000000,0.00003428880000000000
1.00000000000000000000,0.00003471260000000000
1.00000000000000000000,0.00003941180000000000
1.00000000000000000000,0.00004339170000000000
1.00000000000000000000,0.00004195040000000000
1.00000000000000000000,0.00003997060000000000
1.00000000000000000000,0.00004085420000000000
1.00000000000000000000,0.00004066540000000000
1.00000000000000000000,0.00003862990000000000
1.00000000000000000000,0.00003815930000000000
1.00000000000000000000,0.00003979480000000000
1.00000000000000000000,0.00004067230000000000
1.00000000000000000000,0.00004040070000000000
1.00000000000000000000,0.00003973870000000000
1.00000000000000000000,0.00003912490000000000
1.00000000000000000000,0.00003988300000000000
2.00000000000000000000,0.00004218400000000000
2.00000000000000000000,0.00004163190000000000
2.00000000000000000000,0.00003812740000000000
2.00000000000000000000,0.00003548440000000000
2.00000000000000000000,0.00003525320000000000
2.00000000000000000000,0.00003869930000000000
2.00000000000000000000,0.00004498450000000000
2.00000000000000000000,0.00004768980000000000
2.00000000000000000000,0.00004375620000000000
2.00000000000000000000,0.00004230830000000000
2.00000000000000000000,0.00004768220000000000
2.00000000000000000000,0.00004862640000000000
2.00000000000000000000,0.00004484850000000000
2.00000000000000000000,0.00004447410000000000
2.00000000000000000000,0.00004339570000000000
2.00000000000000000000,0.00004169730000000000
2.00000000000000000000,0.00004217480000000000
2.00000000000000000000,0.00004259550000000000
2.00000000000000000000,0.00004068500000000000
2.00000000000000000000,0.00003680920000000000
3.00000000000000000000,0.00003461990000000000
3.00000000000000000000,0.00003679450000000000
3.00000000000000000000,0.00004021960000000000
3.00000000000000000000,0.00004051490000000000
3.00000000000000000000,0.00003891950000000000
3.00000000000000000000,0.00003598890000000000
3.00000000000000000000,0.00003302390000000000
3.00000000000000000000,0.00003268550000000000
3.00000000000000000000,0.00003451970000000000
3.00000000000000000000,0.00003550180000000000
3.00000000000000000000,0.00003660920000000000
3.00000000000000000000,0.00004037570000000000
3.00000000000000000000,0.00004247800000000000
3.00000000000000000000,0.00004258110000000000
3.00000000000000000000,0.00004663040000000000
3.00000000000000000000,0.00005093210000000000
3.00000000000000000000,0.00005293270000000000
3.00000000000000000000,0.00005528240000000000
3.00000000000000000000,0.00005556740000000000
3.00000000000000000000,0.00005273710000000000
4.00000000000000000000,0.00004595600000000000
4.00000000000000000000,0.00004047440000000000
4.00000000000000000000,0.00004129450000000000
4.00000000000000000000,0.00004445780000000000
4.00000000000000000000,0.00004670280000000000
4.00000000000000000000,0.00004708960000000000
4.00000000000000000000,0.00004684250000000000
4.00000000000000000000,0.00004572820000000000
4.00000000000000000000,0.00004367620000000000
4.00000000000000000000,0.00004007780000000000
4.00000000000000000000,0.00003406550000000000
4.00000000000000000000,0.00003099510000000000
4.00000000000000000000,0.00003377740000000000
4.00000000000000000000,0.00003749030000000000
4.00000000000000000000,0.00003970350000000000
4.00000000000000000000,0.00004162770000000000
4.00000000000000000000,0.00004192730000000000
4.00000000000000000000,0.00004049470000000000
4.00000000000000000000,0.00004072520000000000
4.00000000000000000000,0.00004217900000000000
5.00000000000000000000,0.00004093290000000000
5.00000000000000000000,0.00003830410000000000
5.00000000000000000000,0.00003661440000000000
5.00000000000000000000,0.00003778620000000000
5.00000000000000000000,0.00004121430000000000
5.00000000000000000000,0.00004310510000000000
5.00000000000000000000,0.00004605460000000000
5.00000000000000000000,0.00004761650000000000
5.00000000000000000000,0.00004406890000000000
5.00000000000000000000,0.00003918810000000000
5.00000000000000000000,0.00003625830000000000
5.00000000000000000000,0.00003758210000000000
5.00000000000000000000,0.00003920980000000000
5.00000000000000000000,0.00003774220000000000
5.00000000000000000000,0.00003393990000000000
5.00000000000000000000,0.00003330120000000000
5.00000000000000000000,0.00003444250000000000
5.00000000000000000000,0.00003350000000000000
5.00000000000000000000,0.00003213450000000000
5.00000000000000000000,0.00003138600000000000
6.00000000000000000000,0.00003135870000000000
6.00000000000000000000,0.00003355350000000000
6.00000000000000000000,0.00003780450000000000
6.00000000000000000000,0.00004105130000000000
6.00000000000000000000,0.00004243120000000000
6.00000000000000000000,0.00004134100000000000
6.00000000000000000000,0.00003866690000000000
6.00000000000000000000,0.00003799560000000000
6.00000000000000000000,0.00004011190000000000
6.00000000000000000000,0.00003874540000000000
6.00000000000000000000,0.00003429840000000000
6.00000000000000000000,0.00003571390000000000
6.00000000000000000000,0.00004159920000000000
6.00000000000000000000,0.00004493190000000000
6.00000000000000000000,0.00004484950000000000
6.00000000000000000000,0.00004155210000000000
6.00000000000000000000,0.00003705680000000000
6.00000000000000000000,0.00003264340000000000
6.00000000000000000000,0.00003233600000000000
6.00000000000000000000,0.00003354450000000000
7.00000000000000000000,0.00003556520000000000
7.00000000000000000000,0.00003666600000000000
7.00000000000000000000,0.00003642930000000000
7.00000000000000000000,0.00003476740000000000
7.00000000000000000000,0.00003315720000000000
7.00000000000000000000,0.00003389270000000000
7.00000000000000000000,0.00003501460000000000
7.00000000000000000000,0.00003551680000000000
7.00000000000000000000,0.00003501000000000000
7.00000000000000000000,0.00003698350000000000
7.00000000000000000000,0.00003979510000000000
7.00000000000000000000,0.00003920210000000000
7.00000000000000000000,0.00003547910000000000
7.00000000000000000000,0.00003635120000000000
7.00000000000000000000,0.00004040660000000000
7.00000000000000000000,0.00004105430000000000
7.00000000000000000000,0.00003666750000000000
7.00000000000000000000,0.00003257570000000000
7.00000000000000000000,0.00003529040000000000
7.00000000000000000000,0.00004073280000000000
8.00000000000000000000,0.00003995640000000000
8.00000000000000000000,0.00003846210000000000
8.00000000000000000000,0.00004093600000000000
8.00000000000000000000,0.00004503540000000000
8.00000000000000000000,0.00004469170000000000
8.00000000000000000000,0.00004130770000000000
8.00000000000000000000,0.00004086630000000000
8.00000000000000000000,0.00004036200000000000
8.00000000000000000000,0.00003731610000000000
8.00000000000000000000,0.00003625310000000000
8.00000000000000000000,0.00003853870000000000
8.00000000000000000000,0.00003850450000000000
8.00000000000000000000,0.00003787560000000000
8.00000000000000000000,0.00003777470000000000
8.00000000000000000000,0.00003682050000000000
8.00000000000000000000,0.00003595890000000000
8.00000000000000000000,0.00003761200000000000
8.00000000000000000000,0.00003896070000000000
8.00000000000000000000,0.00003770680000000000
8.00000000000000000000,0.00003514200000000000
9.00000000000000000000,0.00003354980000000000
9.00000000000000000000,0.00003665940000000000
9.00000000000000000000,0.00004380470000000000
9.00000000000000000000,0.00004703790000000000
9.00000000000000000000,0.00004621830000000000
9.00000000000000000000,0.00004721180000000000
9.00000000000000000000,0.00004494170000000000
9.00000000000000000000,0.00003993820000000000
9.00000000000000000000,0.00003791120000000000
9.00000000000000000000,0.00003758670000000000
9.00000000000000000000,0.00004173960000000000
9.00000000000000000000,0.00004715480000000000
9.00000000000000000000,0.00004847920000000000
9.00000000000000000000,0.00004709050000000000
9.00000000000000000000,0.00004405910000000000
9.00000000000000000000,0.00003969820000000000
9.00000000000000000000,0.00003868790000000000
9.00000000000000000000,0.00003982870000000000
9.00000000000000000000,0.00003886080000000000
9.00000000000000000000,0.00003630450000000000
10.00000000000000000000,0.00003436210000000000
10.00000000000000000000,0.00003535400000000000
10.00000000000000000000,0.00003796360000000000
10.00000000000000000000,0.00004032060000000000
10.00000000000000000000,0.00003997040000000000
10.00000000000000000000,0.00004023170000000000
10.00000000000000000000,0.00004411770000000000
10.00000000000000000000,0.00004874730000000000
10.00000000000000000000,0.00005015880000000000
10.00000000000000000000,0.00004924280000000000
10.00000000000000000000,0.00004644460000000000
10.00000000000000000000,0.00004267490000000000
10.00000000000000000000,0.00004182090000000000
10.00000000000000000000,0.00004595040000000000
10.00000000000000000000,0.00005275720000000000
10.00000000000000000000,0.00005535130000000000
10.00000000000000000000,0.00005220690000000000
10.00000000000000000000,0.00005188450000000000
10.00000000000000000000,0.00005306780000000000
10.00000000000000000000,0.00004932450000000000
11.00000000000000000000,0.00004397470000000000
11.00000000000000000000,0.00004127600000000000
11.00000000000000000000,0.00003960740000000000
11.00000000000000000000,0.00003681010000000000
11.00000000000000000000,0.00003601870000000000
11.00000000000000000000,0.00003802940000000000
11.00000000000000000000,0.00004155170000000000
11.00000000000000000000,0.00004446100000000000
11.00000000000000000000,0.00004540430000000000
11.00000000000000000000,0.00004314430000000000
11.00000000000000000000,0.00003962930000000000
11.00000000000000000000,0.00003856140000000000
11.00000000000000000000,0.00004287530000000000
11.00000000000000000000,0.00004820240000000000
11.00000000000000000000,0.00004972160000000000
11.00000000000000000000,0.00004963040000000000
11.00000000000000000000,0.00005043710000000000
11.00000000000000000000,0.00005383910000000000
11.00000000000000000000,0.00005388170000000000
11.00000000000000000000,0.00004908610000000000
12.00000000000000000000,0.00004557990000000000
12.00000000000000000000,0.00004426590000000000
12.00000000000000000000,0.00004215810000000000
12.00000000000000000000,0.00004204610000000000
12.00000000000000000000,0.00004526030000000000
12.00000000000000000000,0.00004503730000000000
12.00000000000000000000,0.00004092410000000000
12.00000000000000000000,0.00003821150000000000
12.00000000000000000000,0.00003616010000000000
12.00000000000000000000,0.00003510740000000000
12.00000000000000000000,0.00003740510000000000
12.00000000000000000000,0.00004059470000000000
12.00000000000000000000,0.00004337870000000000
12.00000000000000000000,0.00004478580000000000
12.00000000000000000000,0.00004333210000000000
12.00000000000000000000,0.00003900870000000000
12.00000000000000000000,0.00003533310000000000
12.00000000000000000000,0.00003378750000000000
12.00000000000000000000,0.00003324900000000000
12.00000000000000000000,0.00003451420000000000
13.00000000000000000000,0.00003732790000000000
13.00000000000000000000,0.00003794110000000000
13.00000000000000000000,0.00003702710000000000
13.00000000000000000000,0.00003716140000000000
13.00000000000000000000,0.00003657990000000000
13.00000000000000000000,0.00003801940000000000
13.00000000000000000000,0.00004133890000000000
13.00000000000000000000,0.00004207400000000000
13.00000000000000000000,0.00003931060000000000
13.00000000000000000000,0.00003477030000000000
13.00000000000000000000,0.00003036010000000000
13.00000000000000000000,0.00002987530000000000
13.00000000000000000000,0.00003224620000000000
13.00000000000000000000,0.00003534970000000000
13.00000000000000000000,0.00003869590000000000
13.00000000000000000000,0.00003977400000000000
13.00000000000000000000,0.00003967400000000000
13.00000000000000000000,0.00003823200000000000
13.00000000000000000000,0.00003553860000000000
13.00000000000000000000,0.00003320850000000000
14.00000000000000000000,0.00003164550000000000
14.00000000000000000000,0.00002855820000000000
14.00000000000000000000,0.00002642970000000000
14.00000000000000000000,0.00003003100000000000
14.00000000000000000000,0.00003729150000000000
14.00000000000000000000,0.00004247880000000000
14.00000000000000000000,0.00004385230000000000
14.00000000000000000000,0.00004235190000000000
14.00000000000000000000,0.00004132250000000000
14.00000000000000000000,0.00004199120000000000
14.00000000000000000000,0.00004169490000000000
14.00000000000000000000,0.00003762820000000000
14.00000000000000000000,0.00003249660000000000
14.00000000000000000000,0.00003266780000000000
14.00000000000000000000,0.00003611690000000000
14.00000000000000000000,0.00003566380000000000
14.00000000000000000000,0.00002815480000000000
14.00000000000000000000,0.00002261990000000000
14.00000000000000000000,0.00002244270000000000
14.00000000000000000000,0.00002751970000000000
15.00000000000000000000,0.00003353310000000000
15.00000000000000000000,0.00003693450000000000
15.00000000000000000000,0.00003926870000000000
15.00000000000000000000,0.00003998390000000000
15.00000000000000000000,0.00004015460000000000
15.00000000000000000000,0.00004036480000000000
15.00000000000000000000,0.00003972760000000000
15.00000000000000000000,0.00003780200000000000
15.00000000000000000000,0.00003676950000000000
15.00000000000000000000,0.00003664640000000000
15.00000000000000000000,0.00003776860000000000
15.00000000000000000000,0.00004120790000000000
15.00000000000000000000,0.00004614280000000000
15.00000000000000000000,0.00004786960000000000
15.00000000000000000000,0.00004738780000000000
15.00000000000000000000,0.00004562230000000000
15.00000000000000000000,0.00004093950000000000
15.00000000000000000000,0.00003448180000000000
15.00000000000000000000,0.00003222160000000000
15.00000000000000000000,0.00003726060000000000
16.00000000000000000000,0.00004449160000000000
16.00000000000000000000,0.00004633630000000000
16.00000000000000000000,0.00004407670000000000
16.00000000000000000000,0.00004439670000000000
16.00000000000000000000,0.00004508230000000000
16.00000000000000000000,0.00004368280000000000
16.00000000000000000000,0.00004177980000000000
16.00000000000000000000,0.00004324730000000000
16.00000000000000000000,0.00004461210000000000
16.00000000000000000000,0.00004071600000000000
16.00000000000000000000,0.00003482720000000000
16.00000000000000000000,0.00003513820000000000
16.00000000000000000000,0.00004162110000000000
16.00000000000000000000,0.00004609000000000000
16.00000000000000000000,0.00004428860000000000
16.00000000000000000000,0.00004016530000000000
16.00000000000000000000,0.00004013580000000000
16.00000000000000000000,0.00004120120000000000
16.00000000000000000000,0.00003898170000000000
16.00000000000000000000,0.00003822470000000000
17.00000000000000000000,0.00004253580000000000
17.00000000000000000000,0.00004604870000000000
17.00000000000000000000,0.00004379170000000000
17.00000000000000000000,0.00004004730000000000
17.00000000000000000000,0.00004130590000000000
17.00000000000000000000,0.00004581280000000000
17.00000000000000000000,0.00004898210000000000
17.00000000000000000000,0.00004634160000000000
17.00000000000000000000,0.00004060310000000000
17.00000000000000000000,0.00003866450000000000
17.00000000000000000000,0.00003692680000000000
17.00000000000000000000,0.00003634700000000000
17.00000000000000000000,0.00004064980000000000
17.00000000000000000000,0.00004373420000000000
17.00000000000000000000,0.00004329100000000000
17.00000000000000000000,0.00004141640000000000
17.00000000000000000000,0.00003970010000000000
17.00000000000000000000,0.00003818390000000000
17.00000000000000000000,0.00003781200000000000
17.00000000000000000000,0.00003903520000000000
18.00000000000000000000,0.00004095430000000000
18.00000000000000000000,0.00004260550000000000
18.00000000000000000000,0.00004422230000000000
18.00000000000000000000,0.00004523370000000000
18.00000000000000000000,0.00004566080000000000
18.00000000000000000000,0.00004711210000000000
18.00000000000000000000,0.00004824130000000000
18.00000000000000000000,0.00004543810000000000
18.00000000000000000000,0.00003669110000000000
18.00000000000000000000,0.00002798500000000000
18.00000000000000000000,0.00002601090000000000
18.00000000000000000000,0.00002686310000000000
18.00000000000000000000,0.00002835320000000000
18.00000000000000000000,0.00003124510000000000
18.00000000000000000000,0.00003276700000000000
18.00000000000000000000,0.00003727360000000000
18.00000000000000000000,0.00004397750000000000
18.00000000000000000000,0.00004397360000000000
18.00000000000000000000,0.00004308160000000000
18.00000000000000000000,0.00004991540000000000
19.00000000000000000000,0.00005622080000000000
19.00000000000000000000,0.00005758860000000000
19.00000000000000000000,0.00005522240000000000
19.00000000000000000000,0.00005370600000000000
19.00000000000000000000,0.00005273880000000000
19.00000000000000000000,0.00005284630000000000
19.00000000000000000000,0.00005446670000000000
19.00000000000000000000,0.00005453770000000000
19.00000000000000000000,0.00005097070000000000
19.00000000000000000000,0.00004485400000000000
19.00000000000000000000,0.00003887110000000000
19.00000000000000000000,0.00003683290000000000
19.00000000000000000000,0.00004059720000000000
19.00000000000000000000,0.00004449350000000000
19.00000000000000000000,0.00004648340000000000
19.00000000000000000000,0.00004623400000000000
19.00000000000000000000,0.00004500330000000000
19.00000000000000000000,0.00004606140000000000
19.00000000000000000000,0.00004983290000000000
19.00000000000000000000,0.00004644720000000000
20.00000000000000000000,0.00003517650000000000
20.00000000000000000000,0.00002840090000000000
20.00000000000000000000,0.00003234160000000000
20.00000000000000000000,0.00003889380000000000
20.00000000000000000000,0.00004005380000000000
20.00000000000000000000,0.00003877520000000000
20.00000000000000000000,0.00003996650000000000
20.00000000000000000000,0.00004058180000000000
20.00000000000000000000,0.00004059680000000000
20.00000000000000000000,0.00004011760000000000
20.00000000000000000000,0.00003842510000000000
20.00000000000000000000,0.00003548900000000000
20.00000000000000000000,0.00003307990000000000
20.00000000000000000000,0.00003127750000000000
20.00000000000000000000,0.00002961760000000000
20.00000000000000000000,0.00003085340000000000
20.00000000000000000000,0.00003204940000000000
20.00000000000000000000,0.00003203270000000000
20.00000000000000000000,0.00003302340000000000
20.00000000000000000000,0.00003568220000000000
21.00000000000000000000,0.00003507080000000000
21.00000000000000000000,0.00003182440000000000
21.00000000000000000000,0.00002992600000000000
21.00000000000000000000,0.00002911330000000000
21.00000000000000000000,0.00002794360000000000
21.00000000000000000000,0.00002845800000000000
21.00000000000000000000,0.00002812240000000000
21.00000000000000000000,0.00002638250000000000
21.00000000000000000000,0.00002746350000000000
21.00000000000000000000,0.00002871530000000000
21.00000000000000000000,0.00003092550000000000
21.00000000000000000000,0.00003566880000000000
21.00000000000000000000,0.00003626030000000000
21.00000000000000000000,0.00003641110000000000
21.00000000000000000000,0.00004139510000000000
21.00000000000000000000,0.00004531310000000000
21.00000000000000000000,0.00004624330000000000
21.00000000000000000000,0.00004380030000000000
21.00000000000000000000,0.00003956550000000000
21.00000000000000000000,0.00003657320000000000
22.00000000000000000000,0.00003747350000000000
22.00000000000000000000,0.00004123470000000000
22.00000000000000000000,0.00004244800000000000
22.00000000000000000000,0.00003983540000000000
22.00000000000000000000,0.00003713200000000000
22.00000000000000000000,0.00003626030000000000
22.00000000000000000000,0.00003680720000000000
22.00000000000000000000,0.00003853710000000000
22.00000000000000000000,0.00004136880000000000
22.00000000000000000000,0.00004355630000000000
22.00000000000000000000,0.00004287240000000000
22.00000000000000000000,0.00004497790000000000
22.00000000000000000000,0.00004882290000000000
22.00000000000000000000,0.00004885340000000000
22.00000000000000000000,0.00004588280000000000
22.00000000000000000000,0.00003768060000000000
22.00000000000000000000,0.00003064610000000000
22.00000000000000000000,0.00003260150000000000
22.00000000000000000000,0.00003773590000000000
22.00000000000000000000,0.00003885790000000000
23.00000000000000000000,0.00003972180000000000
23.00000000000000000000,0.00004272260000000000
23.00000000000000000000,0.00004421540000000000
23.00000000000000000000,0.00004501550000000000
23.00000000000000000000,0.00004327500000000000
23.00000000000000000000,0.00004171480000000000
23.00000000000000000000,0.00004498450000000000
23.00000000000000000000,0.00005020770000000000
23.00000000000000000000,0.00005191890000000000
23.00000000000000000000,0.00004863540000000000
23.00000000000000000000,0.00004501910000000000
23.00000000000000000000,0.00004382270000000000
23.00000000000000000000,0.00004414970000000000
23.00000000000000000000,0.00004404790000000000
23.00000000000000000000,0.00004235060000000000
23.00000000000000000000,0.00003987440000000000
23.00000000000000000000,0.00003845750000000000
23.00000000000000000000,0.00003980850000000000
23.00000000000000000000,0.00004444070000000000
23.00000000000000000000,0.00004675310000000000
24.00000000000000000000,0.00004773580000000000
24.00000000000000000000,0.00005027970000000000
24.00000000000000000000,0.00005047650000000000
24.00000000000000000000,0.00004860360000000000
24.00000000000000000000,0.00004834540000000000
24.00000000000000000000,0.00004660380000000000
24.00000000000000000000,0.00004224510000000000
24.00000000000000000000,0.00004128590000000000
24.00000000000000000000,0.00004206230000000000
24.00000000000000000000,0.00004375330000000000
24.00000000000000000000,0.00004479040000000000
24.00000000000000000000,0.00004176030000000000
24.00000000000000000000,0.00003659970000000000
24.00000000000000000000,0.00003506170000000000
24.00000000000000000000,0.00003693500000000000
24.00000000000000000000,0.00003996390000000000
24.00000000000000000000,0.00004271530000000000
24.00000000000000000000,0.00004275750000000000
24.00000000000000000000,0.00004135440000000000
24.00000000000000000000,0.00004072090000000000
25.00000000000000000000,0.00003970840000000000
25.00000000000000000000,0.00003525190000000000
25.00000000000000000000,0.00003020480000000000
25.00000000000000000000,0.00002773020000000000
25.00000000000000000000,0.00002748680000000000
25.00000000000000000000,0.00002897290000000000
25.00000000000000000000,0.00003256050000000000
25.00000000000000000000,0.00003647930000000000
25.00000000000000000000,0.00003743640000000000
25.00000000000000000000,0.00003761740000000000
25.00000000000000000000,0.00003763140000000000
25.00000000000000000000,0.00003729690000000000
25.00000000000000000000,0.00003533250000000000
25.00000000000000000000,0.00003314520000000000
25.00000000000000000000,0.00003515980000000000
25.00000000000000000000,0.00003869260000000000
25.00000000000000000000,0.00004198930000000000
25.00000000000000000000,0.00004172030000000000
25.00000000000000000000,0.00003973540000000000
25.00000000000000000000,0.00003673660000000000
26.00000000000000000000,0.00003481810000000000
26.00000000000000000000,0.00003315170000000000
26.00000000000000000000,0.00003173520000000000
26.00000000000000000000,0.00003228480000000000
26.00000000000000000000,0.00003315460000000000
26.00000000000000000000,0.00003076350000000000
26.00000000000000000000,0.00002630080000000000
26.00000000000000000000,0.00002574290000000000
26.00000000000000000000,0.00002763530000000000
26.00000000000000000000,0.00003058900000000000
26.00000000000000000000,0.00003282840000000000
26.00000000000000000000,0.00003455070000000000
26.00000000000000000000,0.00003559400000000000
26.00000000000000000000,0.00003524560000000000
26.00000000000000000000,0.00003313300000000000
26.00000000000000000000,0.00003403480000000000
26.00000000000000000000,0.00003880190000000000
26.00000000000000000000,0.00004120880000000000
26.00000000000000000000,0.00004114060000000000
26.00000000000000000000,0.00004341450000000000
27.00000000000000000000,0.00004628520000000000
27.00000000000000000000,0.00004776600000000000
27.00000000000000000000,0.00004794860000000000
27.00000000000000000000,0.00005099970000000000
27.00000000000000000000,0.00005265180000000000
27.00000000000000000000,0.00004988560000000000
27.00000000000000000000,0.00004701980000000000
27.00000000000000000000,0.00004417040000000000
27.00000000000000000000,0.00004202880000000000
27.00000000000000000000,0.00004225040000000000
27.00000000000000000000,0.00004643940000000000
27.00000000000000000000,0.00004893240000000000
27.00000000000000000000,0.00004689500000000000
27.00000000000000000000,0.00004392390000000000
27.00000000000000000000,0.00004239130000000000
27.00000000000000000000,0.00004092930000000000
27.00000000000000000000,0.00004039810000000000
27.00000000000000000000,0.00004139130000000000
27.00000000000000000000,0.00004143220000000000
27.00000000000000000000,0.00003839050000000000
28.00000000000000000000,0.00003611730000000000
28.00000000000000000000,0.00003819120000000000
28.00000000000000000000,0.00004190950000000000
28.00000000000000000000,0.00004377970000000000
28.00000000000000000000,0.00004541800000000000
28.00000000000000000000,0.00004846810000000000
28.00000000000000000000,0.00004674440000000000
28.00000000000000000000,0.00004246970000000000
28.00000000000000000000,0.00004633220000000000
28.00000000000000000000,0.00005398670000000000
28.00000000000000000000,0.00005591310000000000
28.00000000000000000000,0.00005149190000000000
28.00000000000000000000,0.00004683690000000000
28.00000000000000000000,0.00004457600000000000
28.00000000000000000000,0.00004302920000000000
28.00000000000000000000,0.00004301940000000000
28.00000000000000000000,0.00004398900000000000
28.00000000000000000000,0.00004423890000000000
28.00000000000000000000,0.00004174160000000000
28.00000000000000000000,0.00004021310000000000
29.00000000000000000000,0.00004278950000000000
29.00000000000000000000,0.00004800890000000000
29.00000000000000000000,0.00005214630000000000
29.00000000000000000000,0.00005453670000000000
29.00000000000000000000,0.00005464370000000000
29.00000000000000000000,0.00005031070000000000
29.00000000000000000000,0.00004717550000000000
29.00000000000000000000,0.00004807480000000000
29.00000000000000000000,0.00004611670000000000
29.00000000000000000000,0.00004147920000000000
29.00000000000000000000,0.00003823180000000000
29.00000000000000000000,0.00003719980000000000
29.00000000000000000000,0.00004015420000000000
29.00000000000000000000,0.00004301070000000000
29.00000000000000000000,0.00004166770000000000
29.00000000000000000000,0.00004010760000000000
29.00000000000000000000,0.00004358110000000000
29.00000000000000000000,0.00004708650000000000
29.00000000000000000000,0.00004467900000000000
29.00000000000000000000,0.00004010120000000000
30.00000000000000000000,0.00003845810000000000
30.00000000000000000000,0.00004035370000000000
30.00000000000000000000,0.00004186640000000000
30.00000000000000000000,0.00003914310000000000
30.00000000000000000000,0.00003592210000000000
30.00000000000000000000,0.00003501700000000000
30.00000000000000000000,0.00003426470000000000
30.00000000000000000000,0.00003391300000000000
30.00000000000000000000,0.00003707240000000000
30.00000000000000000000,0.00004349530000000000
30.00000000000000000000,0.00004652950000000000
30.00000000000000000000,0.00004339570000000000
30.00000000000000000000,0.00004221240000000000
30.00000000000000000000,0.00004423240000000000
30.00000000000000000000,0.00004370690000000000
30.00000000000000000000,0.00003975480000000000
30.00000000000000000000,0.00003552350000000000
30.00000000000000000000,0.00003461550000000000
30.00000000000000000000,0.00003386530000000000
30.00000000000000000000,0.00003139540000000000
31.00000000000000000000,0.00002888040000000000
31.00000000000000000000,0.00002841260000000000
31.00000000000000000000,0.00003000960000000000
31.00000000000000000000,0.00003284250000000000
31.00000000000000000000,0.00003440620000000000
31.00000000000000000000,0.00003573230000000000
31.00000000000000000000,0.00003611630000000000
31.00000000000000000000,0.00003518550000000000
31.00000000000000000000,0.00003596120000000000
31.00000000000000000000,0.00003614900000000000
31.00000000000000000000,0.00003576640000000000
31.00000000000000000000,0.00003573630000000000
31.00000000000000000000,0.00003549850000000000
31.00000000000000000000,0.00003295690000000000
31.00000000000000000000,0.00003121120000000000
31.00000000000000000000,0.00003187470000000000
31.00000000000000000000,0.00003199070000000000
31.00000000000000000000,0.00003056710000000000
31.00000000000000000000,0.00003050430000000000
31.00000000000000000000,0.00003297550000000000
32.00000000000000000000,0.00003776720000000000
32.00000000000000000000,0.00004415480000000000
32.00000000000000000000,0.00004604180000000000
32.00000000000000000000,0.00004532700000000000
32.00000000000000000000,0.00004538600000000000
32.00000000000000000000,0.00004189400000000000
32.00000000000000000000,0.00003867870000000000
32.00000000000000000000,0.00003774700000000000
32.00000000000000000000,0.00003796450000000000
32.00000000000000000000,0.00004083490000000000
32.00000000000000000000,0.00004303320000000000
32.00000000000000000000,0.00004455590000000000
32.00000000000000000000,0.00004456100000000000
32.00000000000000000000,0.00004333940000000000
32.00000000000000000000,0.00004283100000000000
32.00000000000000000000,0.00004596250000000000
32.00000000000000000000,0.00005012250000000000
32.00000000000000000000,0.00004923300000000000
32.00000000000000000000,0.00004393450000000000
32.00000000000000000000,0.00004125850000000000
33.00000000000000000000,0.00004226180000000000
33.00000000000000000000,0.00004023780000000000
33.00000000000000000000,0.00003503050000000000
33.00000000000000000000,0.00003309130000000000
33.00000000000000000000,0.00003372500000000000
33.00000000000000000000,0.00003115230000000000
33.00000000000000000000,0.00002841380000000000
33.00000000000000000000,0.00002988350000000000
33.00000000000000000000,0.00003241950000000000
33.00000000000000000000,0.00003377990000000000
33.00000000000000000000,0.00003687990000000000
33.00000000000000000000,0.00003852480000000000
33.00000000000000000000,0.00003902790000000000
33.00000000000000000000,0.00003984100000000000
33.00000000000000000000,0.00003856830000000000
33.00000000000000000000,0.00003701010000000000
33.00000000000000000000,0.00004030040000000000
33.00000000000000000000,0.00004667080000000000
33.00000000000000000000,0.00004694550000000000
33.00000000000000000000,0.00004158120000000000
34.00000000000000000000,0.00003719170000000000
34.00000000000000000000,0.00003633030000000000
34.00000000000000000000,0.00003867040000000000
34.00000000000000000000,0.00004127370000000000
34.00000000000000000000,0.00004142690000000000
34.00000000000000000000,0.00004032040000000000
34.00000000000000000000,0.00003952190000000000
34.00000000000000000000,0.00003793380000000000
34.00000000000000000000,0.00003666250000000000
34.00000000000000000000,0.00003935280000000000
34.00000000000000000000,0.00004563940000000000
34.00000000000000000000,0.00004965530000000000
34.00000000000000000000,0.00004879880000000000
34.00000000000000000000,0.00004501320000000000
34.00000000000000000000,0.00004080000000000000
34.00000000000000000000,0.00004028840000000000
34.00000000000000000000,0.00004012390000000000
34.00000000000000000000,0.00003795560000000000
34.00000000000000000000,0.00003731790000000000
34.00000000000000000000,0.00003726180000000000
35.00000000000000000000,0.00003818680000000000
35.00000000000000000000,0.00003780540000000000
35.00000000000000000000,0.00003667810000000000
35.00000000000000000000,0.00003834970000000000
35.00000000000000000000,0.00003925000000000000
35.00000000000000000000,0.00003793800000000000
35.00000000000000000000,0.00003608210000000000
35.00000000000000000000,0.00003481540000000000
35.00000000000000000000,0.00003569250000000000
35.00000000000000000000,0.00003879040000000000
35.00000000000000000000,0.00004238360000000000
35.00000000000000000000,0.00004486550000000000
35.00000000000000000000,0.00004576260000000000
35.00000000000000000000,0.00004832970000000000
35.00000000000000000000,0.00005241410000000000
35.00000000000000000000,0.00005635630000000000
35.00000000000000000000,0.00006012650000000000
35.00000000000000000000,0.00005956750000000000
35.00000000000000000000,0.00005453610000000000
35.00000000000000000000,0.00005271740000000000
36.00000000000000000000,0.00005311590000000000
36.00000000000000000000,0.00005238420000000000
36.00000000000000000000,0.00004878280000000000
36.00000000000000000000,0.00004445150000000000
36.00000000000000000000,0.00004402540000000000
36.00000000000000000000,0.00004093600000000000
36.00000000000000000000,0.00003576260000000000
36.00000000000000000000,0.00003537780000000000
36.00000000000000000000,0.00003924720000000000
36.00000000000000000000,0.00003981620000000000
36.00000000000000000000,0.00003687080000000000
36.00000000000000000000,0.00003546230000000000
36.00000000000000000000,0.00003693500000000000
36.00000000000000000000,0.00004020240000000000
36.00000000000000000000,0.00004014830000000000
36.00000000000000000000,0.00003993990000000000
36.00000000000000000000,0.00004526640000000000
36.00000000000000000000,0.00005160230000000000
36.00000000000000000000,0.00005314380000000000
36.00000000000000000000,0.00004920300000000000
37.00000000000000000000,0.00004456690000000000
37.00000000000000000000,0.00004278860000000000
37.00000000000000000000,0.00004328890000000000
37.00000000000000000000,0.00004560090000000000
37.00000000000000000000,0.00004740530000000000
37.00000000000000000000,0.00004452300000000000
37.00000000000000000000,0.00003961390000000000
37.00000000000000000000,0.00003782540000000000
37.00000000000000000000,0.00004075620000000000
37.00000000000000000000,0.00004567500000000000
37.00000000000000000000,0.00004558710000000000
37.00000000000000000000,0.00004304780000000000
37.00000000000000000000,0.00004259780000000000
37.00000000000000000000,0.00004121860000000000
37.00000000000000000000,0.00003951430000000000
37.00000000000000000000,0.00003957270000000000
37.00000000000000000000,0.00003915630000000000
37.00000000000000000000,0.00004036050000000000
37.00000000000000000000,0.00004215000000000000
37.00000000000000000000,0.00004159890000000000
38.00000000000000000000,0.00004083420000000000
38.00000000000000000000,0.00003929640000000000
38.00000000000000000000,0.00003737760000000000
38.00000000000000000000,0.00003728430000000000
38.00000000000000000000,0.00004034910000000000
38.00000000000000000000,0.00004307230000000000
38.00000000000000000000,0.00004272730000000000
38.00000000000000000000,0.00004385380000000000
38.00000000000000000000,0.00004555040000000000
38.00000000000000000000,0.00004444260000000000
38.00000000000000000000,0.00004291030000000000
38.00000000000000000000,0.00004372210000000000
38.00000000000000000000,0.00004511210000000000
38.00000000000000000000,0.00004581200000000000
38.00000000000000000000,0.00004474730000000000
38.00000000000000000000,0.00004286130000000000
38.00000000000000000000,0.00004262350000000000
38.00000000000000000000,0.00004224330000000000
38.00000000000000000000,0.00004073620000000000
38.00000000000000000000,0.00003863570000000000
39.00000000000000000000,0.00003556370000000000
39.00000000000000000000,0.00003619920000000000
39.00000000000000000000,0.00004075460000000000
39.00000000000000000000,0.00004228880000000000
39.00000000000000000000,0.00004226040000000000
39.00000000000000000000,0.00004269200000000000
39.00000000000000000000,0.00004151390000000000
39.00000000000000000000,0.00003617350000000000
39.00000000000000000000,0.00003315210000000000
39.00000000000000000000,0.00003406430000000000
39.00000000000000000000,0.00003524100000000000
39.00000000000000000000,0.00003462660000000000
39.00000000000000000000,0.00003321320000000000
39.00000000000000000000,0.00003213050000000000
39.00000000000000000000,0.00002970620000000000
39.00000000000000000000,0.00002786310000000000
39.00000000000000000000,0.00002846900000000000
39.00000000000000000000,0.00003182140000000000
39.00000000000000000000,0.00003442580000000000
39.00000000000000000000,0.00003298640000000000
40.00000000000000000000,0.00002776830000000000
40.00000000000000000000,0.00002437370000000000
40.00000000000000000000,0.00002540440000000000
40.00000000000000000000,0.00002641290000000000
40.00000000000000000000,0.00002482050000000000
40.00000000000000000000,0.00002446420000000000
40.00000000000000000000,0.00002604520000000000
40.00000000000000000000,0.00002834790000000000
40.00000000000000000000,0.00003171120000000000
40.00000000000000000000,0.00003463900000000000
40.00000000000000000000,0.00003603150000000000
40.00000000000000000000,0.00003828890000000000
40.00000000000000000000,0.00004121460000000000
40.00000000000000000000,0.00004372000000000000
40.00000000000000000000,0.00004352610000000000
40.00000000000000000000,0.00004130740000000000
40.00000000000000000000,0.00003883580000000000
40.00000000000000000000,0.00003616310000000000
40.00000000000000000000,0.00003505370000000000
40.00000000000000000000,0.00003452120000000000
41.00000000000000000000,0.00003361400000000000
41.00000000000000000000,0.00003322150000000000
41.00000000000000000000,0.00003276350000000000
41.00000000000000000000,0.00003180380000000000
41.00000000000000000000,0.00003234780000000000
41.00000000000000000000,0.00003340650000000000
41.00000000000000000000,0.00003311950000000000
41.00000000000000000000,0.00003285450000000000
41.00000000000000000000,0.00003353770000000000
41.00000000000000000000,0.00003517790000000000
41.00000000000000000000,0.00003838850000000000
41.00000000000000000000,0.00004181770000000000
41.00000000000000000000,0.00004584900000000000
41.00000000000000000000,0.00004633830000000000
41.00000000000000000000,0.00004048130000000000
41.00000000000000000000,0.00003313330000000000
41.00000000000000000000,0.00002932680000000000
41.00000000000000000000,0.00002729160000000000
41.00000000000000000000,0.00002909890000000000
41.00000000000000000000,0.00003595380000000000
42.00000000000000000000,0.00004076810000000000
42.00000000000000000000,0.00004009530000000000
42.00000000000000000000,0.00003646770000000000
42.00000000000000000000,0.00003700040000000000
42.00000000000000000000,0.00004054940000000000
42.00000000000000000000,0.00004130400000000000
42.00000000000000000000,0.00003909490000000000
42.00000000000000000000,0.00003939060000000000
42.00000000000000000000,0.00004425840000000000
42.00000000000000000000,0.00004811040000000000
42.00000000000000000000,0.00004659990000000000
42.00000000000000000000,0.00004220930000000000
42.00000000000000000000,0.00004019230000000000
42.00000000000000000000,0.00004146870000000000
42.00000000000000000000,0.00004097140000000000
42.00000000000000000000,0.00003690930000000000
42.00000000000000000000,0.00003386200000000000
42.00000000000000000000,0.00003441290000000000
42.00000000000000000000,0.00003630590000000000
42.00000000000000000000,0.00003688040000000000
43.00000000000000000000,0.00003467390000000000
43.00000000000000000000,0.00003195780000000000
43.00000000000000000000,0.00002974280000000000
43.00000000000000000000,0.00002801790000000000
43.00000000000000000000,0.00002628270000000000
43.00000000000000000000,0.00002662620000000000
43.00000000000000000000,0.00003084360000000000
43.00000000000000000000,0.00003346470000000000
43.00000000000000000000,0.00003601130000000000
43.00000000000000000000,0.00003948800000000000
43.00000000000000000000,0.00004244260000000000
43.00000000000000000000,0.00004408670000000000
43.00000000000000000000,0.00004730860000000000
43.00000000000000000000,0.00005002390000000000
43.00000000000000000000,0.00004852730000000000
43.00000000000000000000,0.00004402660000000000
43.00000000000000000000,0.00004020210000000000
43.00000000000000000000,0.00004130520000000000
43.00000000000000000000,0.00004664250000000000
43.00000000000000000000,0.00005111190000000000
44.00000000000000000000,0.00005224180000000000
44.00000000000000000000,0.00005178350000000000
44.00000000000000000000,0.00004754440000000000
44.00000000000000000000,0.00004423680000000000
44.00000000000000000000,0.00004302320000000000
44.00000000000000000000,0.00003898480000000000
44.00000000000000000000,0.00003682650000000000
44.00000000000000000000,0.00004138310000000000
44.00000000000000000000,0.00004777980000000000
44.00000000000000000000,0.00005003900000000000
44.00000000000000000000,0.00004850510000000000
44.00000000000000000000,0.00004719380000000000
44.00000000000000000000,0.00004701850000000000
44.00000000000000000000,0.00004955140000000000
44.00000000000000000000,0.00005081000000000000
44.00000000000000000000,0.00004796650000000000
44.00000000000000000000,0.00004497830000000000
44.00000000000000000000,0.00004344070000000000
44.00000000000000000000,0.00004209320000000000
44.00000000000000000000,0.00004192680000000000
45.00000000000000000000,0.00004151980000000000
45.00000000000000000000,0.00003893300000000000
45.00000000000000000000,0.00003801540000000000
45.00000000000000000000,0.00004138800000000000
45.00000000000000000000,0.00004521090000000000
45.00000000000000000000,0.00004427990000000000
45.00000000000000000000,0.00004115740000000000
45.00000000000000000000,0.00004105500000000000
45.00000000000000000000,0.00004446190000000000
45.00000000000000000000,0.00004683250000000000
45.00000000000000000000,0.00004659920000000000
45.00000000000000000000,0.00004627400000000000
45.00000000000000000000,0.00004457180000000000
45.00000000000000000000,0.00004240690000000000
45.00000000000000000000,0.00004240110000000000
45.00000000000000000000,0.00004245650000000000
45.00000000000000000000,0.00004434340000000000
45.00000000000000000000,0.00004350500000000000
45.00000000000000000000,0.00003986730000000000
45.00000000000000000000,0.00004029970000000000
46.00000000000000000000,0.00004370790000000000
46.00000000000000000000,0.00004523920000000000
46.00000000000000000000,0.00004579580000000000
46.00000000000000000000,0.00004519340000000000
46.00000000000000000000,0.00004129250000000000
46.00000000000000000000,0.00003756280000000000
46.00000000000000000000,0.00003797390000000000
46.00000000000000000000,0.00004177340000000000
46.00000000000000000000,0.00004387160000000000
46.00000000000000000000,0.00004327220000000000
46.00000000000000000000,0.00004070800000000000
46.00000000000000000000,0.00003853920000000000
46.00000000000000000000,0.00003944460000000000
46.00000000000000000000,0.00004303610000000000
46.00000000000000000000,0.00004637490000000000
46.00000000000000000000,0.00004754640000000000
46.00000000000000000000,0.00004587000000000000
46.00000000000000000000,0.00004296170000000000
46.00000000000000000000,0.00004058430000000000
46.00000000000000000000,0.00003716950000000000
47.00000000000000000000,0.00003272370000000000
47.00000000000000000000,0.00003123750000000000
47.00000000000000000000,0.00003225820000000000
47.00000000000000000000,0.00003537520000000000
47.00000000000000000000,0.00004036780000000000
47.00000000000000000000,0.00004370920000000000
47.00000000000000000000,0.00004423030000000000
47.00000000000000000000,0.00004372210000000000
47.00000000000000000000,0.00004537050000000000
47.00000000000000000000,0.00004767160000000000
47.00000000000000000000,0.00004808890000000000
47.00000000000000000000,0.00004800790000000000
47.00000000000000000000,0.00004967010000000000
47.00000000000000000000,0.00005062230000000000
47.00000000000000000000,0.00004777060000000000
47.00000000000000000000,0.00004179830000000000
47.00000000000000000000,0.00003567180000000000
47.00000000000000000000,0.00003273120000000000
47.00000000000000000000,0.00003360160000000000
47.00000000000000000000,0.00003554910000000000
48.00000000000000000000,0.00003683710000000000
48.00000000000000000000,0.00003688750000000000
48.00000000000000000000,0.00003718110000000000
48.00000000000000000000,0.00003819030000000000
48.00000000000000000000,0.00003951510000000000
48.00000000000000000000,0.00004049150000000000
48.00000000000000000000,0.00004390820000000000
48.00000000000000000000,0.00005076720000000000
48.00000000000000000000,0.00005624000000000000
48.00000000000000000000,0.00005913950000000000
48.00000000000000000000,0.00005840950000000000
48.00000000000000000000,0.00005626330000000000
48.00000000000000000000,0.00005381810000000000
48.00000000000000000000,0.00005264030000000000
48.00000000000000000000,0.00004987380000000000
48.00000000000000000000,0.00004441250000000000
48.00000000000000000000,0.00004024270000000000
48.00000000000000000000,0.00003668010000000000
48.00000000000000000000,0.00003474160000000000
48.00000000000000000000,0.00003741550000000000
49.00000000000000000000,0.00004186300000000000
49.00000000000000000000,0.00004386370000000000
49.00000000000000000000,0.00004336200000000000
49.00000000000000000000,0.00003994360000000000
49.00000000000000000000,0.00003630850000000000
49.00000000000000000000,0.00003633710000000000
49.00000000000000000000,0.00003966600000000000
49.00000000000000000000,0.00004161950000000000
49.00000000000000000000,0.00003926530000000000
49.00000000000000000000,0.00003379770000000000
49.00000000000000000000,0.00002894320000000000
49.00000000000000000000,0.00002724290000000000
49.00000000000000000000,0.00002740940000000000
49.00000000000000000000,0.00002603370000000000
49.00000000000000000000,0.00002395860000000000
49.00000000000000000000,0.00002564240000000000
49.00000000000000000000,0.00002879390000000000
49.00000000000000000000,0.00002981720000000000
49.00000000000000000000,0.00003121060000000000
49.00000000000000000000,0.00003153270000000000
50.00000000000000000000,0.00003235830000000000
50.00000000000000000000,0.00003275840000000000
50.00000000000000000000,0.00003099000000000000
50.00000000000000000000,0.00002804240000000000
50.00000000000000000000,0.00002589830000000000
50.00000000000000000000,0.00002689690000000000
50.00000000000000000000,0.00002963900000000000
50.00000000000000000000,0.00003229210000000000
50.00000000000000000000,0.00003230420000000000
50.00000000000000000000,0.00003095020000000000
50.00000000000000000000,0.00003038540000000000
50.00000000000000000000,0.00003254340000000000
50.00000000000000000000,0.00003564400000000000
50.00000000000000000000,0.00003665950000000000
50.00000000000000000000,0.00003614410000000000
50.00000000000000000000,0.00003637790000000000
50.00000000000000000000,0.00003576680000000000
50.00000000000000000000,0.00003454400000000000
50.00000000000000000000,0.00003520590000000000
50.00000000000000000000,0.00004019410000000000
51.00000000000000000000,0.00004375960000000000
51.00000000000000000000,0.00004357940000000000
51.00000000000000000000,0.00004223200000000000
51.00000000000000000000,0.00004041300000000000
51.00000000000000000000,0.00004200980000000000
51.00000000000000000000,0.00004536790000000000
51.00000000000000000000,0.00004592560000000000
51.00000000000000000000,0.00004084670000000000
51.00000000000000000000,0.00003653230000000000
51.00000000000000000000,0.00003611730000000000
51.00000000000000000000,0.00003568140000000000
51.00000000000000000000,0.00003342490000000000
51.00000000000000000000,0.00003327690000000000
51.00000000000000000000,0.00003672020000000000
51.00000000000000000000,0.00004164390000000000
51.00000000000000000000,0.00004626500000000000
51.00000000000000000000,0.00004706040000000000
51.00000000000000000000,0.00004302840000000000
51.00000000000000000000,0.00003919370000000000
51.00000000000000000000,0.00004114980000000000
52.00000000000000000000,0.00004471200000000000
52.00000000000000000000,0.00004569730000000000
52.00000000000000000000,0.00004638500000000000
52.00000000000000000000,0.00004733080000000000
52.00000000000000000000,0.00004996970000000000
52.00000000000000000000,0.00005443880000000000
52.00000000000000000000,0.00005772940000000000
52.00000000000000000000,0.00006071060000000000
52.00000000000000000000,0.00005947460000000000
52.00000000000000000000,0.00005145880000000000
52.00000000000000000000,0.00004301440000000000
52.00000000000000000000,0.00004115840000000000
52.00000000000000000000,0.00004211320000000000
52.00000000000000000000,0.00004327340000000000
52.00000000000000000000,0.00004552430000000000
52.00000000000000000000,0.00004546680000000000
52.00000000000000000000,0.00004443040000000000
52.00000000000000000000,0.00004471550000000000
52.00000000000000000000,0.00004447310000000000
52.00000000000000000000,0.00004050400000000000
53.00000000000000000000,0.00003652340000000000
53.00000000000000000000,0.00003509480000000000
53.00000000000000000000,0.00003525380000000000
53.00000000000000000000,0.00003673570000000000
53.00000000000000000000,0.00003667260000000000
53.00000000000000000000,0.00003432910000000000
53.00000000000000000000,0.00003393520000000000
53.00000000000000000000,0.00003745170000000000
53.00000000000000000000,0.00004049360000000000
53.00000000000000000000,0.00003916720000000000
53.00000000000000000000,0.00003593960000000000
53.00000000000000000000,0.00003826700000000000
53.00000000000000000000,0.00004497670000000000
53.00000000000000000000,0.00004767740000000000
53.00000000000000000000,0.00004669360000000000
53.00000000000000000000,0.00004350640000000000
53.00000000000000000000,0.00004212820000000000
53.00000000000000000000,0.00004464620000000000
53.00000000000000000000,0.00004492920000000000
53.00000000000000000000,0.00004142410000000000
54.00000000000000000000,0.00004024910000000000
54.00000000000000000000,0.00004121970000000000
54.00000000000000000000,0.00004191250000000000
54.00000000000000000000,0.00004608280000000000
54.00000000000000000000,0.00004888380000000000
54.00000000000000000000,0.00004459290000000000
54.00000000000000000000,0.00003523940000000000
54.00000000000000000000,0.00003020530000000000
54.00000000000000000000,0.00003242820000000000
54.00000000000000000000,0.00003543570000000000
54.00000000000000000000,0.00003564320000000000
54.00000000000000000000,0.00003447090000000000
54.00000000000000000000,0.00003338390000000000
54.00000000000000000000,0.00003209640000000000
54.00000000000000000000,0.00003287280000000000
54.00000000000000000000,0.00003705980000000000
54.00000000000000000000,0.00004341530000000000
54.00000000000000000000,0.00004724990000000000
54.00000000000000000000,0.00004712330000000000
54.00000000000000000000,0.00004794110000000000
55.00000000000000000000,0.00005024530000000000
55.00000000000000000000,0.00004979370000000000
55.00000000000000000000,0.00004426470000000000
55.00000000000000000000,0.00003814960000000000
55.00000000000000000000,0.00003864410000000000
55.00000000000000000000,0.00004156230000000000
55.00000000000000000000,0.00004252000000000000
55.00000000000000000000,0.00004241230000000000
55.00000000000000000000,0.00004248800000000000
55.00000000000000000000,0.00004072220000000000
55.00000000000000000000,0.00003809560000000000
55.00000000000000000000,0.00003742370000000000
55.00000000000000000000,0.00003752700000000000
55.00000000000000000000,0.00004001430000000000
55.00000000000000000000,0.00004561260000000000
55.00000000000000000000,0.00005074880000000000
55.00000000000000000000,0.00005089280000000000
55.00000000000000000000,0.00004774710000000000
55.00000000000000000000,0.00004256750000000000
55.00000000000000000000,0.00003730180000000000
56.00000000000000000000,0.00003554780000000000
56.00000000000000000000,0.00003640380000000000
56.00000000000000000000,0.00003580450000000000
56.00000000000000000000,0.00003318420000000000
56.00000000000000000000,0.00003232600000000000
56.00000000000000000000,0.00003549340000000000
56.00000000000000000000,0.00003906800000000000
56.00000000000000000000,0.00003838540000000000
56.00000000000000000000,0.00003717030000000000
56.00000000000000000000,0.00003686420000000000
56.00000000000000000000,0.00003719680000000000
56.00000000000000000000,0.00003755780000000000
56.00000000000000000000,0.00003476960000000000
56.00000000000000000000,0.00002896220000000000
56.00000000000000000000,0.00002412990000000000
56.00000000000000000000,0.00002620070000000000
56.00000000000000000000,0.00003138620000000000
56.00000000000000000000,0.00003566740000000000
56.00000000000000000000,0.00003998020000000000
56.00000000000000000000,0.00004516650000000000
57.00000000000000000000,0.00004887670000000000
57.00000000000000000000,0.00005035500000000000
57.00000000000000000000,0.00005139180000000000
57.00000000000000000000,0.00005325590000000000
57.00000000000000000000,0.00005512560000000000
57.00000000000000000000,0.00005441000000000000
57.00000000000000000000,0.00005144640000000000
57.00000000000000000000,0.00004849860000000000
57.00000000000000000000,0.00004665740000000000
57.00000000000000000000,0.00004446450000000000
57.00000000000000000000,0.00004293330000000000
57.00000000000000000000,0.00004200550000000000
57.00000000000000000000,0.00003948560000000000
57.00000000000000000000,0.00003618970000000000
57.00000000000000000000,0.00003496430000000000
57.00000000000000000000,0.00003559820000000000
57.00000000000000000000,0.00003685430000000000
57.00000000000000000000,0.00003861930000000000
57.00000000000000000000,0.00004000130000000000
57.00000000000000000000,0.00003980200000000000
58.00000000000000000000,0.00003961290000000000
58.00000000000000000000,0.00003937810000000000
58.00000000000000000000,0.00004235570000000000
58.00000000000000000000,0.00004264630000000000
58.00000000000000000000,0.00003868700000000000
58.00000000000000000000,0.00003787340000000000
58.00000000000000000000,0.00003970430000000000
58.00000000000000000000,0.00004088090000000000
58.00000000000000000000,0.00004075800000000000
58.00000000000000000000,0.00003930280000000000
58.00000000000000000000,0.00003588080000000000
58.00000000000000000000,0.00003432620000000000
58.00000000000000000000,0.00003588210000000000
58.00000000000000000000,0.00003824880000000000
58.00000000000000000000,0.00003947450000000000
58.00000000000000000000,0.00003989160000000000
58.00000000000000000000,0.00004027250000000000
58.00000000000000000000,0.00004271830000000000
58.00000000000000000000,0.00004484810000000000
58.00000000000000000000,0.00004444740000000000
59.00000000000000000000,0.00004236840000000000
59.00000000000000000000,0.00004143770000000000
59.00000000000000000000,0.00003994310000000000
59.00000000000000000000,0.00003710220000000000
59.00000000000000000000,0.00003676990000000000
59.00000000000000000000,0.00003677620000000000
59.00000000000000000000,0.00003395040000000000
59.00000000000000000000,0.00003031460000000000
59.00000000000000000000,0.00002726950000000000
59.00000000000000000000,0.00002594290000000000
59.00000000000000000000,0.00002573730000000000
59.00000000000000000000,0.00002748090000000000
59.00000000000000000000,0.00003066620000000000
59.00000000000000000000,0.00003368090000000000
59.00000000000000000000,0.00003618990000000000
59.00000000000000000000,0.00003406990000000000
59.00000000000000000000,0.00003214920000000000
59.00000000000000000000,0.00003542300000000000
59.00000000000000000000,0.00003993230000000000
59.00000000000000000000,0.00003948060000000000
60.00000000000000000000,0.00003712030000000000
60.00000000000000000000,0.00003758660000000000
60.00000000000000000000,0.00003938250000000000
60.00000000000000000000,0.00003936220000000000
60.00000000000000000000,0.00003653870000000000
60.00000000000000000000,0.00003178060000000000
60.00000000000000000000,0.00002850500000000000
60.00000000000000000000,0.00003046870000000000
60.00000000000000000000,0.00003251830000000000
60.00000000000000000000,0.00002877360000000000
60.00000000000000000000,0.00002415000000000000
60.00000000000000000000,0.00002721610000000000
60.00000000000000000000,0.00003619980000000000
60.00000000000000000000,0.00004151600000000000
60.00000000000000000000,0.00004194320000000000
60.00000000000000000000,0.00003989760000000000
60.00000000000000000000,0.00003762550000000000
60.00000000000000000000,0.00003704330000000000
60.00000000000000000000,0.00003352330000000000
60.00000000000000000000,0.00002887810000000000
61.00000000000000000000,0.00002717640000000000
61.00000000000000000000,0.00003020920000000000
61.00000000000000000000,0.00003502990000000000
61.00000000000000000000,0.00003929910000000000
61.00000000000000000000,0.00004248540000000000
61.00000000000000000000,0.00004235280000000000
61.00000000000000000000,0.00003913110000000000
61.00000000000000000000,0.00003737500000000000
61.00000000000000000000,0.00004039550000000000
61.00000000000000000000,0.00004561810000000000
61.00000000000000000000,0.00004847030000000000
61.00000000000000000000,0.00004602550000000000
61.00000000000000000000,0.00004199290000000000
61.00000000000000000000,0.00003959320000000000
61.00000000000000000000,0.00004180250000000000
61.00000000000000000000,0.00004644770000000000
61.00000000000000000000,0.00004688700000000000
61.00000000000000000000,0.00004599670000000000
61.00000000000000000000,0.00004656870000000000
61.00000000000000000000,0.00004761220000000000
62.00000000000000000000,0.00004788510000000000
62.00000000000000000000,0.00004710430000000000
62.00000000000000000000,0.00004579430000000000
62.00000000000000000000,0.00004343940000000000
62.00000000000000000000,0.00004426680000000000
62.00000000000000000000,0.00004681890000000000
62.00000000000000000000,0.00004772570000000000
62.00000000000000000000,0.00004617870000000000
62.00000000000000000000,0.00004159350000000000
62.00000000000000000000,0.00003796830000000000
62.00000000000000000000,0.00003913730000000000
62.00000000000000000000,0.00004080210000000000
62.00000000000000000000,0.00004099360000000000
62.00000000000000000000,0.00004202580000000000
62.00000000000000000000,0.00004187080000000000
62.00000000000000000000,0.00004074120000000000
62.00000000000000000000,0.00004181240000000000
62.00000000000000000000,0.00004455170000000000
62.00000000000000000000,0.00004482740000000000
62.00000000000000000000,0.00004286810000000000
63.00000000000000000000,0.00004218670000000000
63.00000000000000000000,0.00004461410000000000
63.00000000000000000000,0.00004691290000000000
63.00000000000000000000,0.00004617880000000000
63.00000000000000000000,0.00004434210000000000
63.00000000000000000000,0.00004490880000000000
63.00000000000000000000,0.00004452850000000000
63.00000000000000000000,0.00004212190000000000
63.00000000000000000000,0.00003880210000000000
63.00000000000000000000,0.00003745590000000000
63.00000000000000000000,0.00004104950000000000
63.00000000000000000000,0.00004484190000000000
63.00000000000000000000,0.00004667900000000000
63.00000000000000000000,0.00004549400000000000
63.00000000000000000000,0.00004359580000000000
63.00000000000000000000,0.00004126350000000000
63.00000000000000000000,0.00004125600000000000
63.00000000000000000000,0.00004251280000000000
63.00000000000000000000,0.00004322690000000000
63.00000000000000000000,0.00004555700000000000
64.00000000000000000000,0.00004761590000000000
64.00000000000000000000,0.00004809450000000000
64.00000000000000000000,0.00004819740000000000
64.00000000000000000000,0.00004837810000000000
64.00000000000000000000,0.00004665790000000000
64.00000000000000000000,0.00004568330000000000
64.00000000000000000000,0.00004568960000000000
64.00000000000000000000,0.00004396520000000000
64.00000000000000000000,0.00004234660000000000
64.00000000000000000000,0.00004364900000000000
64.00000000000000000000,0.00004185970000000000
64.00000000000000000000,0.00003842390000000000
64.00000000000000000000,0.00003543110000000000
64.00000000000000000000,0.00003237280000000000
64.00000000000000000000,0.00003331270000000000
64.00000000000000000000,0.00003268550000000000
64.00000000000000000000,0.00003083070000000000
64.00000000000000000000,0.00003233020000000000
64.00000000000000000000,0.00003396980000000000
64.00000000000000000000,0.00003603430000000000
65.00000000000000000000,0.00003829100000000000
65.00000000000000000000,0.00003817690000000000
65.00000000000000000000,0.00003795830000000000
65.00000000000000000000,0.00004020150000000000
65.00000000000000000000,0.00004082010000000000
65.00000000000000000000,0.00003805010000000000
65.00000000000000000000,0.00003540710000000000
65.00000000000000000000,0.00003533290000000000
65.00000000000000000000,0.00003706280000000000
65.00000000000000000000,0.00003796260000000000
65.00000000000000000000,0.00003966080000000000
65.00000000000000000000,0.00004319340000000000
65.00000000000000000000,0.00004578170000000000
65.00000000000000000000,0.00004226470000000000
65.00000000000000000000,0.00003595340000000000
65.00000000000000000000,0.00003531280000000000
65.00000000000000000000,0.00004109600000000000
65.00000000000000000000,0.00004760090000000000
65.00000000000000000000,0.00004908710000000000
65.00000000000000000000,0.00004591200000000000
66.00000000000000000000,0.00004400740000000000
66.00000000000000000000,0.00004549650000000000
66.00000000000000000000,0.00004512680000000000
66.00000000000000000000,0.00004453750000000000
66.00000000000000000000,0.00004882740000000000
66.00000000000000000000,0.00005354940000000000
66.00000000000000000000,0.00005433870000000000
66.00000000000000000000,0.00005161750000000000
66.00000000000000000000,0.00004644440000000000
66.00000000000000000000,0.00004388510000000000
66.00000000000000000000,0.00004665100000000000
66.00000000000000000000,0.00004853990000000000
66.00000000000000000000,0.00004570100000000000
66.00000000000000000000,0.00004228190000000000
66.00000000000000000000,0.00004079280000000000
66.00000000000000000000,0.00004121260000000000
66.00000000000000000000,0.00004149380000000000
66.00000000000000000000,0.00003840660000000000
66.00000000000000000000,0.00003470950000000000
66.00000000000000000000,0.00003476710000000000
67.00000000000000000000,0.00003614050000000000
67.00000000000000000000,0.00003498040000000000
67.00000000000000000000,0.00003279680000000000
67.00000000000000000000,0.00003621210000000000
67.00000000000000000000,0.00004247930000000000
67.00000000000000000000,0.00004138860000000000
67.00000000000000000000,0.00003659080000000000
67.00000000000000000000,0.00003107100000000000
67.00000000000000000000,0.00002809620000000000
67.00000000000000000000,0.00003025060000000000
67.00000000000000000000,0.00003337940000000000
67.00000000000000000000,0.00003461970000000000
67.00000000000000000000,0.00003215090000000000
67.00000000000000000000,0.00002892610000000000
67.00000000000000000000,0.00002779280000000000
67.00000000000000000000,0.00002954440000000000
67.00000000000000000000,0.00003235440000000000
67.00000000000000000000,0.00003375360000000000
67.00000000000000000000,0.00003335120000000000
67.00000000000000000000,0.00003381430000000000
68.00000000000000000000,0.00003702920000000000
68.00000000000000000000,0.00004019640000000000
68.00000000000000000000,0.00003980180000000000
68.00000000000000000000,0.00003454110000000000
68.00000000000000000000,0.00002790580000000000
68.00000000000000000000,0.00002586300000000000
68.00000000000000000000,0.00002668170000000000
68.00000000000000000000,0.00002621590000000000
68.00000000000000000000,0.00002501510000000000
68.00000000000000000000,0.00002558060000000000
68.00000000000000000000,0.00002848770000000000
68.00000000000000000000,0.00003077860000000000
68.00000000000000000000,0.00003429050000000000
68.00000000000000000000,0.00004052040000000000
68.00000000000000000000,0.00004806390000000000
68.00000000000000000000,0.00005402820000000000
68.00000000000000000000,0.00005408500000000000
68.00000000000000000000,0.00005065980000000000
68.00000000000000000000,0.00005160300000000000
68.00000000000000000000,0.00005609690000000000
69.00000000000000000000,0.00005754600000000000
69.00000000000000000000,0.00005388830000000000
69.00000000000000000000,0.00004799520000000000
69.00000000000000000000,0.00004481750000000000
69.00000000000000000000,0.00004371420000000000
69.00000000000000000000,0.00004197440000000000
69.00000000000000000000,0.00003938690000000000
69.00000000000000000000,0.00003738180000000000
69.00000000000000000000,0.00003509550000000000
69.00000000000000000000,0.00003289480000000000
69.00000000000000000000,0.00003317720000000000
69.00000000000000000000,0.00003643750000000000
69.00000000000000000000,0.00003956160000000000
69.00000000000000000000,0.00004114980000000000
69.00000000000000000000,0.00003973850000000000
69.00000000000000000000,0.00003664080000000000
69.00000000000000000000,0.00003717920000000000
69.00000000000000000000,0.00003908630000000000
69.00000000000000000000,0.00004037560000000000
69.00000000000000000000,0.00004094230000000000
70.00000000000000000000,0.00003968120000000000
70.00000000000000000000,0.00003723290000000000
70.00000000000000000000,0.00003418940000000000
70.00000000000000000000,0.00003112540000000000
70.00000000000000000000,0.00002849660000000000
70.00000000000000000000,0.00003053480000000000
70.00000000000000000000,0.00003780130000000000
70.00000000000000000000,0.00004294400000000000
70.00000000000000000000,0.00004261780000000000
70.00000000000000000000,0.00003832950000000000
70.00000000000000000000,0.00003521450000000000
70.00000000000000000000,0.00003535030000000000
70.00000000000000000000,0.00003673800000000000
70.00000000000000000000,0.00003759740000000000
70.00000000000000000000,0.00003734920000000000
70.00000000000000000000,0.00003659020000000000
70.00000000000000000000,0.00003870540000000000
70.00000000000000000000,0.00004317480000000000
70.00000000000000000000,0.00004619580000000000
70.00000000000000000000,0.00004687920000000000
71.00000000000000000000,0.00004697070000000000
71.00000000000000000000,0.00004630520000000000
71.00000000000000000000,0.00004469090000000000
71.00000000000000000000,0.00004385560000000000
71.00000000000000000000,0.00004359240000000000
71.00000000000000000000,0.00004389390000000000
71.00000000000000000000,0.00004291430000000000
71.00000000000000000000,0.00004031570000000000
71.00000000000000000000,0.00003893360000000000
71.00000000000000000000,0.00004136330000000000
71.00000000000000000000,0.00004573710000000000
71.00000000000000000000,0.00004978020000000000
71.00000000000000000000,0.00005059110000000000
71.00000000000000000000,0.00004660580000000000
71.00000000000000000000,0.00004269410000000000
71.00000000000000000000,0.00004232750000000000
71.00000000000000000000,0.00004355480000000000
71.00000000000000000000,0.00004523620000000000
71.00000000000000000000,0.00004352850000000000
71.00000000000000000000,0.00003814840000000000
72.00000000000000000000,0.00003413220000000000
72.00000000000000000000,0.00003505770000000000
72.00000000000000000000,0.00003905570000000000
72.00000000000000000000,0.00004250850000000000
72.00000000000000000000,0.00004458610000000000
72.00000000000000000000,0.00004421230000000000
72.00000000000000000000,0.00004171960000000000
72.00000000000000000000,0.00003720320000000000
72.00000000000000000000,0.00003324950000000000
72.00000000000000000000,0.00003233200000000000
72.00000000000000000000,0.00003558160000000000
72.00000000000000000000,0.00003992970000000000
72.00000000000000000000,0.00004097090000000000
72.00000000000000000000,0.00004089790000000000
72.00000000000000000000,0.00003976200000000000
72.00000000000000000000,0.00003764340000000000
72.00000000000000000000,0.00003866140000000000
72.00000000000000000000,0.00003917590000000000
72.00000000000000000000,0.00003901760000000000
72.00000000000000000000,0.00004346500000000000
73.00000000000000000000,0.00004642410000000000
73.00000000000000000000,0.00004388400000000000
73.00000000000000000000,0.00004001230000000000
73.00000000000000000000,0.00003802430000000000
73.00000000000000000000,0.00003926560000000000
73.00000000000000000000,0.00004177820000000000
73.00000000000000000000,0.00004307450000000000
73.00000000000000000000,0.00004215570000000000
73.00000000000000000000,0.00004177640000000000
73.00000000000000000000,0.00004163630000000000
73.00000000000000000000,0.00004142140000000000
73.00000000000000000000,0.00004411470000000000
73.00000000000000000000,0.00004866640000000000
73.00000000000000000000,0.00005028090000000000
73.00000000000000000000,0.00004995330000000000
73.00000000000000000000,0.00005069140000000000
73.00000000000000000000,0.00004817810000000000
73.00000000000000000000,0.00004410370000000000
73.00000000000000000000,0.00004250970000000000
73.00000000000000000000,0.00003981120000000000
74.00000000000000000000,0.00003999370000000000
74.00000000000000000000,0.00004244460000000000
74.00000000000000000000,0.00004300860000000000
74.00000000000000000000,0.00004667240000000000
74.00000000000000000000,0.00004795450000000000
74.00000000000000000000,0.00004470490000000000
74.00000000000000000000,0.00004291810000000000
74.00000000000000000000,0.00004501260000000000
74.00000000000000000000,0.00004667410000000000
74.00000000000000000000,0.00004583680000000000
74.00000000000000000000,0.00004278310000000000
74.00000000000000000000,0.00003550420000000000
74.00000000000000000000,0.00003000930000000000
74.00000000000000000000,0.00003003170000000000
74.00000000000000000000,0.00003217500000000000
74.00000000000000000000,0.00003217550000000000
74.00000000000000000000,0.00003001510000000000
74.00000000000000000000,0.00003015100000000000
74.00000000000000000000,0.00003477880000000000
74.00000000000000000000,0.00003910260000000000
75.00000000000000000000,0.00003978140000000000
75.00000000000000000000,0.00003969300000000000
75.00000000000000000000,0.00004015510000000000
75.00000000000000000000,0.00003806860000000000
75.00000000000000000000,0.00003475900000000000
75.00000000000000000000,0.00003446520000000000
75.00000000000000000000,0.00003427710000000000
75.00000000000000000000,0.00003315490000000000
75.00000000000000000000,0.00003384260000000000
75.00000000000000000000,0.00003631880000000000
75.00000000000000000000,0.00003630460000000000
75.00000000000000000000,0.00003467560000000000
75.00000000000000000000,0.00003449880000000000
75.00000000000000000000,0.00003558820000000000
75.00000000000000000000,0.00003687380000000000
75.00000000000000000000,0.00003849200000000000
75.00000000000000000000,0.00003963030000000000
75.00000000000000000000,0.00003702830000000000
75.00000000000000000000,0.00003463720000000000
75.00000000000000000000,0.00003680070000000000
76.00000000000000000000,0.00004017000000000000
76.00000000000000000000,0.00004066410000000000
76.00000000000000000000,0.00004102620000000000
76.00000000000000000000,0.00004325890000000000
76.00000000000000000000,0.00004527790000000000
76.00000000000000000000,0.00004481830000000000
76.00000000000000000000,0.00004174080000000000
76.00000000000000000000,0.00003940930000000000
76.00000000000000000000,0.00003956240000000000
76.00000000000000000000,0.00004015070000000000
76.00000000000000000000,0.00004172030000000000
76.00000000000000000000,0.00004547300000000000
76.00000000000000000000,0.00004664100000000000
76.00000000000000000000,0.00004482280000000000
76.00000000000000000000,0.00004309030000000000
76.00000000000000000000,0.00004125130000000000
76.00000000000000000000,0.00003995950000000000
76.00000000000000000000,0.00003793440000000000
76.00000000000000000000,0.00003540090000000000
76.00000000000000000000,0.00003454990000000000
77.00000000000000000000,0.00003747450000000000
77.00000000000000000000,0.00004108740000000000
77.00000000000000000000,0.00004049550000000000
77.00000000000000000000,0.00003721570000000000
77.00000000000000000000,0.00003404380000000000
77.00000000000000000000,0.00003237810000000000
77.00000000000000000000,0.00003546620000000000
77.00000000000000000000,0.00004215300000000000
77.00000000000000000000,0.00004493010000000000
77.00000000000000000000,0.00004408720000000000
77.00000000000000000000,0.00004329240000000000
77.00000000000000000000,0.00004216650000000000
77.00000000000000000000,0.00004127150000000000
77.00000000000000000000,0.00004315180000000000
77.00000000000000000000,0.00004609240000000000
77.00000000000000000000,0.00004508260000000000
77.00000000000000000000,0.00003810610000000000
77.00000000000000000000,0.00003201730000000000
77.00000000000000000000,0.00003367150000000000
77.00000000000000000000,0.00003785240000000000
78.00000000000000000000,0.00003794770000000000
78.00000000000000000000,0.00003499150000000000
78.00000000000000000000,0.00003281240000000000
78.00000000000000000000,0.00003592520000000000
78.00000000000000000000,0.00004107070000000000
78.00000000000000000000,0.00004339710000000000
78.00000000000000000000,0.00004571400000000000
78.00000000000000000000,0.00005157090000000000
78.00000000000000000000,0.00005695230000000000
78.00000000000000000000,0.00005632730000000000
78.00000000000000000000,0.00005462690000000000
78.00000000000000000000,0.00005542570000000000
78.00000000000000000000,0.00005602350000000000
78.00000000000000000000,0.00005274640000000000
78.00000000000000000000,0.00004902730000000000
78.00000000000000000000,0.00004908460000000000
78.00000000000000000000,0.00005086850000000000
78.00000000000000000000,0.00004936750000000000
78.00000000000000000000,0.00004541810000000000
78.00000000000000000000,0.00004422970000000000
79.00000000000000000000,0.00004536810000000000
79.00000000000000000000,0.00004584870000000000
79.00000000000000000000,0.00004400570000000000
79.00000000000000000000,0.00003990290000000000
79.00000000000000000000,0.00003575170000000000
79.00000000000000000000,0.00003421390000000000
79.00000000000000000000,0.00003472580000000000
79.00000000000000000000,0.00003262480000000000
79.00000000000000000000,0.00002705000000000000
79.00000000000000000000,0.00002411300000000000
79.00000000000000000000,0.00002650000000000000
79.00000000000000000000,0.00002893100000000000
79.00000000000000000000,0.00002908110000000000
79.00000000000000000000,0.00002801870000000000
79.00000000000000000000,0.00002563200000000000
79.00000000000000000000,0.00002358190000000000
79.00000000000000000000,0.00002318900000000000
79.00000000000000000000,0.00002462520000000000
79.00000000000000000000,0.00002571040000000000
79.00000000000000000000,0.00002715590000000000
80.00000000000000000000,0.00002982040000000000
80.00000000000000000000,0.00003453620000000000
80.00000000000000000000,0.00003805930000000000
80.00000000000000000000,0.00003773570000000000
80.00000000000000000000,0.00003519200000000000
80.00000000000000000000,0.00003519690000000000
80.00000000000000000000,0.00003879890000000000
80.00000000000000000000,0.00004263690000000000
80.00000000000000000000,0.00004534850000000000
80.00000000000000000000,0.00004703110000000000
80.00000000000000000000,0.00004685850000000000
80.00000000000000000000,0.00004603570000000000
80.00000000000000000000,0.00004657150000000000
80.00000000000000000000,0.00004557090000000000
80.00000000000000000000,0.00004095700000000000
80.00000000000000000000,0.00003488360000000000
80.00000000000000000000,0.00003331260000000000
80.00000000000000000000,0.00003325920000000000
80.00000000000000000000,0.00003482320000000000
80.00000000000000000000,0.00003752270000000000
81.00000000000000000000,0.00003844560000000000
81.00000000000000000000,0.00003921950000000000
81.00000000000000000000,0.00003962190000000000
81.00000000000000000000,0.00003903010000000000
81.00000000000000000000,0.00003985500000000000
81.00000000000000000000,0.00004243080000000000
81.00000000000000000000,0.00004224580000000000
81.00000000000000000000,0.00003870060000000000
81.00000000000000000000,0.00003676010000000000
81.00000000000000000000,0.00003705590000000000
81.00000000000000000000,0.00003585970000000000
81.00000000000000000000,0.00003419730000000000
81.00000000000000000000,0.00003406470000000000
81.00000000000000000000,0.00003481390000000000
81.00000000000000000000,0.00003510000000000000
81.00000000000000000000,0.00003411200000000000
81.00000000000000000000,0.00003312570000000000
81.00000000000000000000,0.00003391180000000000
81.00000000000000000000,0.00003315300000000000
81.00000000000000000000,0.00003345630000000000
82.00000000000000000000,0.00003544330000000000
82.00000000000000000000,0.00003403030000000000
82.00000000000000000000,0.00003290460000000000
82.00000000000000000000,0.00003671180000000000
82.00000000000000000000,0.00004285740000000000
82.00000000000000000000,0.00004424880000000000
82.00000000000000000000,0.00004178920000000000
82.00000000000000000000,0.00004055380000000000
82.00000000000000000000,0.00004312330000000000
82.00000000000000000000,0.00004839690000000000
82.00000000000000000000,0.00005127200000000000
82.00000000000000000000,0.00005164310000000000
82.00000000000000000000,0.00005269000000000000
82.00000000000000000000,0.00005430780000000000
82.00000000000000000000,0.00005314840000000000
82.00000000000000000000,0.00005047850000000000
82.00000000000000000000,0.00004846340000000000
82.00000000000000000000,0.00004787290000000000
82.00000000000000000000,0.00004609120000000000
82.00000000000000000000,0.00004117300000000000
83.00000000000000000000,0.00003754540000000000
83.00000000000000000000,0.00003886440000000000
83.00000000000000000000,0.00004256580000000000
83.00000000000000000000,0.00004411450000000000
83.00000000000000000000,0.00004195010000000000
83.00000000000000000000,0.00003914030000000000
83.00000000000000000000,0.00003948600000000000
83.00000000000000000000,0.00004221980000000000
83.00000000000000000000,0.00004498380000000000
83.00000000000000000000,0.00004665360000000000
83.00000000000000000000,0.00004882780000000000
83.00000000000000000000,0.00004851910000000000
83.00000000000000000000,0.00004272610000000000
83.00000000000000000000,0.00004167320000000000
83.00000000000000000000,0.00004727410000000000
83.00000000000000000000,0.00005084990000000000
83.00000000000000000000,0.00005128600000000000
83.00000000000000000000,0.00004985820000000000
83.00000000000000000000,0.00005138810000000000
83.00000000000000000000,0.00005443610000000000
84.00000000000000000000,0.00005543740000000000
84.00000000000000000000,0.00005421740000000000
84.00000000000000000000,0.00005010590000000000
84.00000000000000000000,0.00004320340000000000
84.00000000000000000000,0.00003877030000000000
84.00000000000000000000,0.00003942040000000000
84.00000000000000000000,0.00004101520000000000
84.00000000000000000000,0.00004124330000000000
84.00000000000000000000,0.00004037350000000000
84.00000000000000000000,0.00003934590000000000
84.00000000000000000000,0.00003952010000000000
84.00000000000000000000,0.00003828010000000000
84.00000000000000000000,0.00003569940000000000
84.00000000000000000000,0.00003621470000000000
84.00000000000000000000,0.00003693660000000000
84.00000000000000000000,0.00003603500000000000
84.00000000000000000000,0.00003594740000000000
84.00000000000000000000,0.00003667890000000000
84.00000000000000000000,0.00003504080000000000
84.00000000000000000000,0.00003221020000000000
85.00000000000000000000,0.00002842830000000000
85.00000000000000000000,0.00002671100000000000
85.00000000000000000000,0.00002640740000000000
85.00000000000000000000,0.00002630060000000000
85.00000000000000000000,0.00002844660000000000
85.00000000000000000000,0.00003258630000000000
85.00000000000000000000,0.00003613120000000000
85.00000000000000000000,0.00003802930000000000
85.00000000000000000000,0.00004072970000000000
85.00000000000000000000,0.00004334080000000000
85.00000000000000000000,0.00004383620000000000
85.00000000000000000000,0.00004019480000000000
85.00000000000000000000,0.00003586530000000000
85.00000000000000000000,0.00003464580000000000
85.00000000000000000000,0.00003663820000000000
85.00000000000000000000,0.00003869010000000000
85.00000000000000000000,0.00003907210000000000
85.00000000000000000000,0.00003978370000000000
85.00000000000000000000,0.00004001790000000000
85.00000000000000000000,0.00003785460000000000
86.00000000000000000000,0.00003915910000000000
86.00000000000000000000,0.00004329730000000000
86.00000000000000000000,0.00004657650000000000
86.00000000000000000000,0.00004754370000000000
86.00000000000000000000,0.00004665800000000000
86.00000000000000000000,0.00004699180000000000
86.00000000000000000000,0.00004533640000000000
86.00000000000000000000,0.00004498230000000000
86.00000000000000000000,0.00004589160000000000
86.00000000000000000000,0.00004486590000000000
86.00000000000000000000,0.00004106250000000000
86.00000000000000000000,0.00003523670000000000
86.00000000000000000000,0.00003348420000000000
86.00000000000000000000,0.00003556630000000000
86.00000000000000000000,0.00003789550000000000
86.00000000000000000000,0.00003870760000000000
86.00000000000000000000,0.00003778240000000000
86.00000000000000000000,0.00003570750000000000
86.00000000000000000000,0.00003506710000000000
86.00000000000000000000,0.00003744930000000000
87.00000000000000000000,0.00003941870000000000
87.00000000000000000000,0.00003920350000000000
87.00000000000000000000,0.00003889910000000000
87.00000000000000000000,0.00003948620000000000
87.00000000000000000000,0.00004008230000000000
87.00000000000000000000,0.00004166020000000000
87.00000000000000000000,0.00004286180000000000
87.00000000000000000000,0.00004432530000000000
87.00000000000000000000,0.00004736100000000000
87.00000000000000000000,0.00004770560000000000
87.00000000000000000000,0.00004549140000000000
87.00000000000000000000,0.00004314070000000000
87.00000000000000000000,0.00004011650000000000
87.00000000000000000000,0.00003728690000000000
87.00000000000000000000,0.00003435210000000000
87.00000000000000000000,0.00003078970000000000
87.00000000000000000000,0.00002853630000000000
87.00000000000000000000,0.00002963330000000000
87.00000000000000000000,0.00003203520000000000
87.00000000000000000000,0.00003207120000000000
88.00000000000000000000,0.00003227380000000000
88.00000000000000000000,0.00003428110000000000
88.00000000000000000000,0.00003575680000000000
88.00000000000000000000,0.00003591440000000000
88.00000000000000000000,0.00003798470000000000
88.00000000000000000000,0.00004206580000000000
88.00000000000000000000,0.00004280540000000000
88.00000000000000000000,0.00004046420000000000
88.00000000000000000000,0.00004040460000000000
88.00000000000000000000,0.00004244730000000000
88.00000000000000000000,0.00004402380000000000
88.00000000000000000000,0.00004345300000000000
88.00000000000000000000,0.00004111580000000000
88.00000000000000000000,0.00003909580000000000
88.00000000000000000000,0.00003861470000000000
88.00000000000000000000,0.00003967260000000000
88.00000000000000000000,0.00003876530000000000
88.00000000000000000000,0.00003671150000000000
88.00000000000000000000,0.00004064000000000000
88.00000000000000000000,0.00004649240000000000
89.00000000000000000000,0.00004398570000000000
89.00000000000000000000,0.00003887240000000000
89.00000000000000000000,0.00003512490000000000
89.00000000000000000000,0.00003204350000000000
89.00000000000000000000,0.00002917910000000000
89.00000000000000000000,0.00003007720000000000
89.00000000000000000000,0.00003600240000000000
89.00000000000000000000,0.00003911480000000000
89.00000000000000000000,0.00003895830000000000
89.00000000000000000000,0.00003923530000000000
89.00000000000000000000,0.00003988050000000000
89.00000000000000000000,0.00004083160000000000
89.00000000000000000000,0.00004177260000000000
89.00000000000000000000,0.00003949240000000000
89.00000000000000000000,0.00003578000000000000
89.00000000000000000000,0.00003458190000000000
89.00000000000000000000,0.00003492030000000000
89.00000000000000000000,0.00003436870000000000
89.00000000000000000000,0.00003467340000000000
89.00000000000000000000,0.00003687400000000000
90.00000000000000000000,0.00004048590000000000
90.00000000000000000000,0.00004398140000000000
90.00000000000000000000,0.00004613710000000000
90.00000000000000000000,0.00004528920000000000
90.00000000000000000000,0.00004300960000000000
90.00000000000000000000,0.00004334880000000000
90.00000000000000000000,0.00004495280000000000
90.00000000000000000000,0.00004350550000000000
90.00000000000000000000,0.00003933860000000000
90.00000000000000000000,0.00003874650000000000
90.00000000000000000000,0.00004226140000000000
90.00000000000000000000,0.00004471100000000000
90.00000000000000000000,0.00004377630000000000
90.00000000000000000000,0.00004020890000000000
90.00000000000000000000,0.00003674660000000000
90.00000000000000000000,0.00003476340000000000
90.00000000000000000000,0.00003454770000000000
90.00000000000000000000,0.00003575040000000000
90.00000000000000000000,0.00003660210000000000
90.00000000000000000000,0.00003787940000000000
91.00000000000000000000,0.00003901690000000000
91.00000000000000000000,0.00003814260000000000
91.00000000000000000000,0.00003659490000000000
91.00000000000000000000,0.00003500960000000000
91.00000000000000000000,0.00003142220000000000
91.00000000000000000000,0.00002767370000000000
91.00000000000000000000,0.00002694000000000000
91.00000000000000000000,0.00002953940000000000
91.00000000000000000000,0.00003562000000000000
91.00000000000000000000,0.00003990000000000000
91.00000000000000000000,0.00003804760000000000
91.00000000000000000000,0.00003511100000000000
91.00000000000000000000,0.00003648780000000000
91.00000000000000000000,0.00003875730000000000
91.00000000000000000000,0.00004043440000000000
91.00000000000000000000,0.00004505800000000000
91.00000000000000000000,0.00005180450000000000
91.00000000000000000000,0.00006095380000000000
91.00000000000000000000,0.00006900460000000001
91.00000000000000000000,0.00007203069999999999
92.00000000000000000000,0.00006929110000000000
92.00000000000000000000,0.00006230050000000000
92.00000000000000000000,0.00005338460000000000
92.00000000000000000000,0.00004848170000000000
92.00000000000000000000,0.00004751670000000000
92.00000000000000000000,0.00004720570000000000
92.00000000000000000000,0.00004963630000000000
92.00000000000000000000,0.00005199860000000000
92.00000000000000000000,0.00005118370000000000
92.00000000000000000000,0.00004842610000000000
92.00000000000000000000,0.00004668450000000000
92.00000000000000000000,0.00004529400000000000
92.00000000000000000000,0.00004300800000000000
92.00000000000000000000,0.00003925110000000000
92.00000000000000000000,0.00003804460000000000
92.00000000000000000000,0.00003909620000000000
92.00000000000000000000,0.00004111310000000000
92.00000000000000000000,0.00004454300000000000
92.00000000000000000000,0.00004468530000000000
92.00000000000000000000,0.00004013940000000000
93.00000000000000000000,0.00003360260000000000
93.00000000000000000000,0.00003024620000000000
93.00000000000000000000,0.00003067030000000000
93.00000000000000000000,0.00003317920000000000
93.00000000000000000000,0.00003613860000000000
93.00000000000000000000,0.00003544150000000000
93.00000000000000000000,0.00003496680000000000
93.00000000000000000000,0.00003810590000000000
93.00000000000000000000,0.00003979550000000000
93.00000000000000000000,0.00003924960000000000
93.00000000000000000000,0.00004082250000000000
93.00000000000000000000,0.00004157380000000000
93.00000000000000000000,0.00004101700000000000
93.00000000000000000000,0.00004064700000000000
93.00000000000000000000,0.00003765420000000000
93.00000000000000000000,0.00003268980000000000
93.00000000000000000000,0.00003021710000000000
93.00000000000000000000,0.00003266920000000000
93.00000000000000000000,0.00003767280000000000
93.00000000000000000000,0.00004168990000000000
94.00000000000000000000,0.00004093260000000000
94.00000000000000000000,0.00003805690000000000
94.00000000000000000000,0.00003875260000000000
94.00000000000000000000,0.00004263810000000000
94.00000000000000000000,0.00004463580000000000
94.00000000000000000000,0.00004317220000000000
94.00000000000000000000,0.00004122040000000000
94.00000000000000000000,0.00004215040000000000
94.00000000000000000000,0.00004345050000000000
94.00000000000000000000,0.00003806240000000000
94.00000000000000000000,0.00003318240000000000
94.00000000000000000000,0.00003614010000000000
94.00000000000000000000,0.00003899430000000000
94.00000000000000000000,0.00003843960000000000
94.00000000000000000000,0.00003777470000000000
94.00000000000000000000,0.00004083220000000000
94.00000000000000000000,0.00004275690000000000
94.00000000000000000000,0.00004115380000000000
94.00000000000000000000,0.00004005960000000000
94.00000000000000000000,0.00004063360000000000
95.00000000000000000000,0.00004047900000000000
95.00000000000000000000,0.00003970250000000000
95.00000000000000000000,0.00004014460000000000
95.00000000000000000000,0.00004087740000000000
95.00000000000000000000,0.00004160760000000000
95.00000000000000000000,0.00004362760000000000
95.00000000000000000000,0.00004508320000000000
95.00000000000000000000,0.00004524440000000000
95.00000000000000000000,0.00004581090000000000
95.00000000000000000000,0.00004490960000000000
95.00000000000000000000,0.00004488910000000000
95.00000000000000000000,0.00004266640000000000
95.00000000000000000000,0.00004039790000000000
95.00000000000000000000,0.00004188280000000000
95.00000000000000000000,0.00003999070000000000
95.00000000000000000000,0.00003723640000000000
95.00000000000000000000,0.00003996410000000000
95.00000000000000000000,0.00004329330000000000
95.00000000000000000000,0.00004406920000000000
95.00000000000000000000,0.00004278650000000000
96.00000000000000000000,0.00003976160000000000
96.00000000000000000000,0.00003642540000000000
96.00000000000000000000,0.00003619780000000000
96.00000000000000000000,0.00003689930000000000
96.00000000000000000000,0.00003522890000000000
96.00000000000000000000,0.00003476590000000000
96.00000000000000000000,0.00003779170000000000
96.00000000000000000000,0.00004184590000000000
96.00000000000000000000,0.00004284070000000000
96.00000000000000000000,0.00004038880000000000
96.00000000000000000000,0.00003684080000000000
96.00000000000000000000,0.00003469270000000000
96.00000000000000000000,0.00003564640000000000
96.00000000000000000000,0.00003968500000000000
96.00000000000000000000,0.00004233710000000000
96.00000000000000000000,0.00004252970000000000
96.00000000000000000000,0.00004206570000000000
96.00000000000000000000,0.00004156840000000000
96.00000000000000000000,0.00004080230000000000
96.00000000000000000000,0.00003976660000000000
97.00000000000000000000,0.00004159260000000000
97.00000000000000000000,0.00004038530000000000
97.00000000000000000000,0.00003562700000000000
97.00000000000000000000,0.00003465920000000000
97.00000000000000000000,0.00003583050000000000
97.00000000000000000000,0.00003748100000000000
97.00000000000000000000,0.00003825260000000000
97.00000000000000000000,0.00004083830000000000
97.00000000000000000000,0.00004539070000000000
97.00000000000000000000,0.00004598740000000000
97.00000000000000000000,0.00004187550000000000
97.00000000000000000000,0.00004087880000000000
97.00000000000000000000,0.00004368090000000000
97.00000000000000000000,0.00004373560000000000
97.00000000000000000000,0.00004059800000000000
97.00000000000000000000,0.00003749960000000000
97.00000000000000000000,0.00003549090000000000
97.00000000000000000000,0.00003588940000000000
97.00000000000000000000,0.00003868130000000000
97.00000000000000000000,0.00004066780000000000
98.00000000000000000000,0.00004165790000000000
98.00000000000000000000,0.00004098210000000000
98.00000000000000000000,0.00003873010000000000
98.00000000000000000000,0.00003671980000000000
98.00000000000000000000,0.00003703760000000000
98.00000000000000000000,0.00003760300000000000
98.00000000000000000000,0.00003728510000000000
98.00000000000000000000,0.00003479490000000000
98.00000000000000000000,0.00003144780000000000
98.00000000000000000000,0.00003022000000000000
98.00000000000000000000,0.00002804660000000000
98.00000000000000000000,0.00002394130000000000
98.00000000000000000000,0.00002552850000000000
98.00000000000000000000,0.00003355730000000000
98.00000000000000000000,0.00003791190000000000
98.00000000000000000000,0.00003660380000000000
98.00000000000000000000,0.00003282930000000000
98.00000000000000000000,0.00003296320000000000
98.00000000000000000000,0.00003504490000000000
98.00000000000000000000,0.00003326870000000000
99.00000000000000000000,0.00003024750000000000
99.00000000000000000000,0.00002995550000000000
99.00000000000000000000,0.00003041560000000000
99.00000000000000000000,0.00002959620000000000
99.00000000000000000000,0.00003154110000000000
99.00000000000000000000,0.00003551670000000000
99.00000000000000000000,0.00003582630000000000
99.00000000000000000000,0.00003383480000000000
99.00000000000000000000,0.00003630410000000000
99.00000000000000000000,0.00003886920000000000
99.00000000000000000000,0.00003827180000000000
99.00000000000000000000,0.00003721420000000000
99.00000000000000000000,0.00003699330000000000
99.00000000000000000000,0.00003553910000000000
99.00000000000000000000,0.00003442580000000000
99.00000000000000000000,0.00003235020000000000
99.00000000000000000000,0.00003083780000000000
99.00000000000000000000,0.00003243200000000000
99.00000000000000000000,0.00003300010000000000
99.00000000000000000000,0.00003596490000000000
100.00000000000000000000,0.00003720290000000000
100.00000000000000000000,0.00003702180000000000
100.00000000000000000000,0.00003681610000000000
100.00000000000000000000,0.00003687080000000000
100.00000000000000000000,0.00003887850000000000
100.00000000000000000000,0.00004098510000000000
100.00000000000000000000,0.00004220150000000000
100.00000000000000000000,0.00004408380000000000
100.00000000000000000000,0.00004746840000000000
100.00000000000000000000,0.00004881570000000000
100.00000000000000000000,0.00004804510000000000
100.00000000000000000000,0.00004732550000000000
100.00000000000000000000,0.00004656870000000000
100.00000000000000000000,0.00004455080000000000
100.00000000000000000000,0.00004512400000000000
100.00000000000000000000,0.00004773460000000000
100.00000000000000000000,0.00004909750000000000
100.00000000000000000000,0.00004858130000000000
100.00000000000000000000,0.00004707500000000000
100.00000000000000000000,0.00004678900000000000
101.00000000000000000000,0.00004658740000000000
101.00000000000000000000,0.00004470000000000000
101.00000000000000000000,0.00004400750000000000
101.00000000000000000000,0.00004562250000000000
101.00000000000000000000,0.00004577450000000000
101.00000000000000000000,0.00004664270000000000
101.00000000000000000000,0.00004931000000000000
101.00000000000000000000,0.00005023640000000000
101.00000000000000000000,0.00005021670000000000
101.00000000000000000000,0.00004926510000000000
101.00000000000000000000,0.00004893340000000000
101.00000000000000000000,0.00004709000000000000
101.00000000000000000000,0.00004414950000000000
101.00000000000000000000,0.00004182000000000000
101.00000000000000000000,0.00003889650000000000
101.00000000000000000000,0.00003514360000000000
101.00000000000000000000,0.00003390910000000000
101.00000000000000000000,0.00003762940000000000
101.00000000000000000000,0.00004295140000000000
101.00000000000000000000,0.00004644760000000000
102.00000000000000000000,0.00004780190000000000
102.00000000000000000000,0.00004964790000000000
102.00000000000000000000,0.00005007580000000000
102.00000000000000000000,0.00005043750000000000
102.00000000000000000000,0.00005337530000000000
102.00000000000000000000,0.00005787320000000000
102.00000000000000000000,0.00005694760000000000
102.00000000000000000000,0.00004919780000000000
102.00000000000000000000,0.00004094030000000000
102.00000000000000000000,0.00003702870000000000
102.00000000000000000000,0.00003413660000000000
102.00000000000000000000,0.00002997660000000000
102.00000000000000000000,0.00003210760000000000
102.00000000000000000000,0.00003997220000000000
102.00000000000000000000,0.00004456000000000000
102.00000000000000000000,0.00004256660000000000
102.00000000000000000000,0.00004142440000000000
102.00000000000000000000,0.00004268170000000000
102.00000000000000000000,0.00004222380000000000
102.00000000000000000000,0.00004173260000000000
103.00000000000000000000,0.00004286470000000000
103.00000000000000000000,0.00004404510000000000
103.00000000000000000000,0.00004326340000000000
103.00000000000000000000,0.00004084050000000000
103.00000000000000000000,0.00003832690000000000
103.00000000000000000000,0.00003918510000000000
103.00000000000000000000,0.00004254750000000000
103.00000000000000000000,0.00004445640000000000
103.00000000000000000000,0.00004450540000000000
103.00000000000000000000,0.00004327040000000000
103.00000000000000000000,0.00003950480000000000
103.00000000000000000000,0.00003714880000000000
103.00000000000000000000,0.00003913070000000000
103.00000000000000000000,0.00004043890000000000
103.00000000000000000000,0.00003929230000000000
103.00000000000000000000,0.00003735630000000000
103.00000000000000000000,0.00003850900000000000
103.00000000000000000000,0.00004090600000000000
103.00000000000000000000,0.00004186120000000000
103.00000000000000000000,0.00004155100000000000
104.00000000000000000000,0.00004020960000000000
104.00000000000000000000,0.00004063810000000000
104.00000000000000000000,0.00004182810000000000
104.00000000000000000000,0.00004192850000000000
104.00000000000000000000,0.00003994570000000000
104.00000000000000000000,0.00003967840000000000
104.00000000000000000000,0.00004379260000000000
104.00000000000000000000,0.00004934470000000000
104.00000000000000000000,0.00005194400000000000
104.00000000000000000000,0.00005204230000000000
104.00000000000000000000,0.00005039980000000000
104.00000000000000000000,0.00004578080000000000
104.00000000000000000000,0.00004136730000000000
104.00000000000000000000,0.00003920300000000000
104.00000000000000000000,0.00003851540000000000
104.00000000000000000000,0.00003836200000000000
104.00000000000000000000,0.00003795210000000000
104.00000000000000000000,0.00003720250000000000
104.00000000000000000000,0.00003799840000000000
104.00000000000000000000,0.00003808360000000000
105.00000000000000000000,0.00003807570000000000
105.00000000000000000000,0.00003757480000000000
105.00000000000000000000,0.00003588220000000000
105.00000000000000000000,0.00003387920000000000
105.00000000000000000000,0.00003308910000000000
105.00000000000000000000,0.00003336480000000000
105.00000000000000000000,0.00003143580000000000
105.00000000000000000000,0.00003053840000000000
105.00000000000000000000,0.00003196630000000000
105.00000000000000000000,0.00003378220000000000
105.00000000000000000000,0.00003523480000000000
105.00000000000000000000,0.00003686550000000000
105.00000000000000000000,0.00003692710000000000
105.00000000000000000000,0.00003435230000000000
105.00000000000000000000,0.00003303710000000000
105.00000000000000000000,0.00003487730000000000
105.00000000000000000000,0.00003650070000000000
105.00000000000000000000,0.00003593810000000000
105.00000000000000000000,0.00003610790000000000
105.00000000000000000000,0.00003633820000000000
106.00000000000000000000,0.00003396310000000000
106.00000000000000000000,0.00003177270000000000
106.00000000000000000000,0.00003447860000000000
106.00000000000000000000,0.00003888100000000000
106.00000000000000000000,0.00003850930000000000
106.00000000000000000000,0.00003566580000000000
106.00000000000000000000,0.00003480180000000000
106.00000000000000000000,0.00003598100000000000
106.00000000000000000000,0.00003764810000000000
106.00000000000000000000,0.00004095190000000000
106.00000000000000000000,0.00003964390000000000
106.00000000000000000000,0.00003429310000000000
106.00000000000000000000,0.00003426200000000000
106.00000000000000000000,0.00003500550000000000
106.00000000000000000000,0.00003321060000000000
106.00000000000000000000,0.00002777330000000000
106.00000000000000000000,0.00002342450000000000
106.00000000000000000000,0.00002408760000000000
106.00000000000000000000,0.00002753670000000000
106.00000000000000000000,0.00003036280000000000
107.00000000000000000000,0.00003181400000000000
107.00000000000000000000,0.00003355770000000000
107.00000000000000000000,0.00003323250000000000
107.00000000000000000000,0.00003090580000000000
107.00000000000000000000,0.00003114690000000000
107.00000000000000000000,0.00003612570000000000
107.00000000000000000000,0.00003956750000000000
107.00000000000000000000,0.00003917520000000000
107.00000000000000000000,0.00003753760000000000
107.00000000000000000000,0.00003794720000000000
107.00000000000000000000,0.00004100830000000000
107.00000000000000000000,0.00004425650000000000
107.00000000000000000000,0.00004429260000000000
107.00000000000000000000,0.00004436180000000000
107.00000000000000000000,0.00004701480000000000
107.00000000000000000000,0.00005051380000000000
107.00000000000000000000,0.00005158120000000000
107.00000000000000000000,0.00004615650000000000
107.00000000000000000000,0.00003888910000000000
107.00000000000000000000,0.00003748230000000000
108.00000000000000000000,0.00003983670000000000
108.00000000000000000000,0.00004355830000000000
108.00000000000000000000,0.00004772240000000000
108.00000000000000000000,0.00004899450000000000
108.00000000000000000000,0.00004906040000000000
108.00000000000000000000,0.00004863110000000000
108.00000000000000000000,0.00004982640000000000
108.00000000000000000000,0.00005221370000000000
108.00000000000000000000,0.00005414830000000000
108.00000000000000000000,0.00005582510000000000
108.00000000000000000000,0.00005952410000000000
108.00000000000000000000,0.00006183580000000000
108.00000000000000000000,0.00005834900000000000
108.00000000000000000000,0.00005408760000000000
108.00000000000000000000,0.00005488810000000000
108.00000000000000000000,0.00005753340000000000
108.00000000000000000000,0.00005626270000000000
108.00000000000000000000,0.00005247110000000000
108.00000000000000000000,0.00004816160000000000
108.00000000000000000000,0.00004613450000000000
109.00000000000000000000,0.00004936450000000000
109.00000000000000000000,0.00005327260000000000
109.00000000000000000000,0.00005149760000000000
109.00000000000000000000,0.00004446640000000000
109.00000000000000000000,0.00003976790000000000
109.00000000000000000000,0.00004264770000000000
109.00000000000000000000,0.00004371140000000000
109.00000000000000000000,0.00004011580000000000
109.00000000000000000000,0.00003540530000000000
109.00000000000000000000,0.00003279100000000000
109.00000000000000000000,0.00003714820000000000
109.00000000000000000000,0.00004151830000000000
109.00000000000000000000,0.00004178590000000000
109.00000000000000000000,0.00004140660000000000
109.00000000000000000000,0.00004316660000000000
109.00000000000000000000,0.00004572070000000000
109.00000000000000000000,0.00004468050000000000
109.00000000000000000000,0.00004110950000000000
109.00000000000000000000,0.00003752350000000000
109.00000000000000000000,0.00003511650000000000
110.00000000000000000000,0.00003376650000000000
110.00000000000000000000,0.00003481640000000000
110.00000000000000000000,0.00003688950000000000
110.00000000000000000000,0.00003620970000000000
110.00000000000000000000,0.00003200230000000000
110.00000000000000000000,0.00002949420000000000
110.00000000000000000000,0.00003280330000000000
110.00000000000000000000,0.00003650550000000000
110.00000000000000000000,0.00003598830000000000
110.00000000000000000000,0.00003489360000000000
110.00000000000000000000,0.00003625450000000000
110.00000000000000000000,0.00003043490000000000
110.00000000000000000000,0.00002257500000000000
110.00000000000000000000,0.00002400720000000000
110.00000000000000000000,0.00002569180000000000
110.00000000000000000000,0.00002330020000000000
110.00000000000000000000,0.00002356460000000000
110.00000000000000000000,0.00003010480000000000
110.00000000000000000000,0.00003630340000000000
110.00000000000000000000,0.00003606100000000000
111.00000000000000000000,0.00003172480000000000
111.00000000000000000000,0.00002914390000000000
111.00000000000000000000,0.00003041210000000000
111.00000000000000000000,0.00003292870000000000
111.00000000000000000000,0.00003448700000000000
111.00000000000000000000,0.00003458360000000000
111.00000000000000000000,0.00003206060000000000
111.00000000000000000000,0.00002949610000000000
111.00000000000000000000,0.00003240450000000000
111.00000000000000000000,0.00003659400000000000
111.00000000000000000000,0.00003693720000000000
111.00000000000000000000,0.00003575730000000000
111.00000000000000000000,0.00003671710000000000
111.00000000000000000000,0.00003915720000000000
111.00000000000000000000,0.00003974710000000000
111.00000000000000000000,0.00003780160000000000
111.00000000000000000000,0.00003712770000000000
111.00000000000000000000,0.00003985660000000000
111.00000000000000000000,0.00004033990000000000
111.00000000000000000000,0.00003950080000000000
112.00000000000000000000,0.00004021820000000000
112.00000000000000000000,0.00004039610000000000
112.00000000000000000000,0.00004110420000000000
112.00000000000000000000,0.00004278270000000000
112.00000000000000000000,0.00004402210000000000
112.00000000000000000000,0.00004316900000000000
112.00000000000000000000,0.00004207490000000000
112.00000000000000000000,0.00004240140000000000
112.00000000000000000000,0.00004372270000000000
112.00000000000000000000,0.00004391050000000000
112.00000000000000000000,0.00004490090000000000
112.00000000000000000000,0.00004756530000000000
112.00000000000000000000,0.00005097150000000000
112.00000000000000000000,0.00005250050000000000
112.00000000000000000000,0.00005021330000000000
112.00000000000000000000,0.00004655400000000000
112.00000000000000000000,0.00004431990000000000
112.00000000000000000000,0.00004288700000000000
112.00000000000000000000,0.00004221020000000000
112.00000000000000000000,0.00004352200000000000
113.00000000000000000000,0.00004425190000000000
113.00000000000000000000,0.00004469470000000000
113.00000000000000000000,0.00004271490000000000
113.00000000000000000000,0.00003631060000000000
113.00000000000000000000,0.00002814880000000000
113.00000000000000000000,0.00002526540000000000
113.00000000000000000000,0.00002900670000000000
113.00000000000000000000,0.00003340300000000000
113.00000000000000000000,0.00003581130000000000
113.00000000000000000000,0.00003501180000000000
113.00000000000000000000,0.00003300390000000000
113.00000000000000000000,0.00003529480000000000
113.00000000000000000000,0.00003855620000000000
113.00000000000000000000,0.00003701030000000000
113.00000000000000000000,0.00003363210000000000
113.00000000000000000000,0.00003479210000000000
113.00000000000000000000,0.00003916000000000000
113.00000000000000000000,0.00004226560000000000
113.00000000000000000000,0.00004215810000000000
113.00000000000000000000,0.00004007960000000000
114.00000000000000000000,0.00003719400000000000
114.00000000000000000000,0.00003708190000000000
114.00000000000000000000,0.00004049330000000000
114.00000000000000000000,0.00004243560000000000
114.00000000000000000000,0.00004250160000000000
114.00000000000000000000,0.00004140910000000000
114.00000000000000000000,0.00003851840000000000
114.00000000000000000000,0.00003688820000000000
114.00000000000000000000,0.00003691680000000000
114.00000000000000000000,0.00003779060000000000
114.00000000000000000000,0.00003874960000000000
114.00000000000000000000,0.00003546340000000000
114.00000000000000000000,0.00003054060000000000
114.00000000000000000000,0.00002945060000000000
114.00000000000000000000,0.00003012190000000000
114.00000000000000000000,0.00002924820000000000
114.00000000000000000000,0.00003318940000000000
114.00000000000000000000,0.00003871890000000000
114.00000000000000000000,0.00004319010000000000
114.00000000000000000000,0.00004371200000000000
115.00000000000000000000,0.00003824830000000000
115.00000000000000000000,0.00003591750000000000
115.00000000000000000000,0.00004048400000000000
115.00000000000000000000,0.00004717730000000000
115.00000000000000000000,0.00005187510000000000
115.00000000000000000000,0.00005331160000000000
115.00000000000000000000,0.00004980500000000000
115.00000000000000000000,0.00004431940000000000
115.00000000000000000000,0.00004228930000000000
115.00000000000000000000,0.00004567150000000000
115.00000000000000000000,0.00005033690000000000
115.00000000000000000000,0.00005162080000000000
115.00000000000000000000,0.00004827480000000000
115.00000000000000000000,0.00004590790000000000
115.00000000000000000000,0.00004869700000000000
115.00000000000000000000,0.00005255710000000000
115.00000000000000000000,0.00005211230000000000
115.00000000000000000000,0.00005100180000000000
115.00000000000000000000,0.00005212160000000000
115.00000000000000000000,0.00005144420000000000
116.00000000000000000000,0.00004607350000000000
116.00000000000000000000,0.00004167810000000000
116.00000000000000000000,0.00004388880000000000
116.00000000000000000000,0.00004577030000000000
116.00000000000000000000,0.00004355970000000000
116.00000000000000000000,0.00004090490000000000
116.00000000000000000000,0.00004125520000000000
116.00000000000000000000,0.00004341930000000000
116.00000000000000000000,0.00004357730000000000
116.00000000000000000000,0.00004331710000000000
116.00000000000000000000,0.00004709000000000000
116.00000000000000000000,0.00005372610000000000
116.00000000000000000000,0.00005703310000000000
116.00000000000000000000,0.00005619950000000000
116.00000000000000000000,0.00005743030000000000
116.00000000000000000000,0.00006069990000000000
116.00000000000000000000,0.00005874780000000000
116.00000000000000000000,0.00005056620000000000
116.00000000000000000000,0.00004368960000000000
116.00000000000000000000,0.00004291850000000000
117.00000000000000000000,0.00004505090000000000
117.00000000000000000000,0.00004723990000000000
117.00000000000000000000,0.00004582480000000000
117.00000000000000000000,0.00003885740000000000
117.00000000000000000000,0.00003531650000000000
117.00000000000000000000,0.00003990790000000000
117.00000000000000000000,0.00004404140000000000
117.00000000000000000000,0.00004137410000000000
117.00000000000000000000,0.00003506060000000000
117.00000000000000000000,0.00003303380000000000
117.00000000000000000000,0.00003624510000000000
117.00000000000000000000,0.00003981170000000000
117.00000000000000000000,0.00004143200000000000
117.00000000000000000000,0.00004208810000000000
117.00000000000000000000,0.00004265500000000000
117.00000000000000000000,0.00004320480000000000
117.00000000000000000000,0.00004543120000000000
117.00000000000000000000,0.00004696300000000000
117.00000000000000000000,0.00004535660000000000
117.00000000000000000000,0.00004226710000000000
118.00000000000000000000,0.00004012600000000000
118.00000000000000000000,0.00003882270000000000
118.00000000000000000000,0.00003856610000000000
118.00000000000000000000,0.00003798170000000000
118.00000000000000000000,0.00003627280000000000
118.00000000000000000000,0.00003625050000000000
118.00000000000000000000,0.00003862580000000000
118.00000000000000000000,0.00004375210000000000
118.00000000000000000000,0.00004864640000000000
118.00000000000000000000,0.00004641520000000000
118.00000000000000000000,0.00004049190000000000
118.00000000000000000000,0.00004041160000000000
118.00000000000000000000,0.00004170120000000000
118.00000000000000000000,0.00003765360000000000
118.00000000000000000000,0.00003046770000000000
118.00000000000000000000,0.00002466080000000000
118.00000000000000000000,0.00002445970000000000
118.00000000000000000000,0.00002853780000000000
118.00000000000000000000,0.00003051940000000000
118.00000000000000000000,0.00002823780000000000
119.00000000000000000000,0.00002626990000000000
119.00000000000000000000,0.00002343720000000000
119.00000000000000000000,0.00001780210000000000
119.00000000000000000000,0.00001671660000000000
119.00000000000000000000,0.00002270230000000000
119.00000000000000000000,0.00002684110000000000
119.00000000000000000000,0.00002343970000000000
119.00000000000000000000,0.00001914040000000000
119.00000000000000000000,0.00001992120000000000
119.00000000000000000000,0.00002395760000000000
119.00000000000000000000,0.00002660720000000000
119.00000000000000000000,0.00002665860000000000
119.00000000000000000000,0.00002685090000000000
119.00000000000000000000,0.00002784870000000000
119.00000000000000000000,0.00002690220000000000
119.00000000000000000000,0.00002780410000000000
119.00000000000000000000,0.00003161900000000000
119.00000000000000000000,0.00003513060000000000
119.00000000000000000000,0.00003692210000000000
119.00000000000000000000,0.00003705750000000000
120.00000000000000000000,0.00004001460000000000
120.00000000000000000000,0.00004549410000000000
120.00000000000000000000,0.00004799210000000000
120.00000000000000000000,0.00004230140000000000
120.00000000000000000000,0.00003467970000000000
120.00000000000000000000,0.00003087420000000000
120.00000000000000000000,0.00003267390000000000
120.00000000000000000000,0.00003999040000000000
120.00000000000000000000,0.00004562180000000000
120.00000000000000000000,0.00004560650000000000
120.00000000000000000000,0.00004413260000000000
120.00000000000000000000,0.00004484140000000000
120.00000000000000000000,0.00004504740000000000
120.00000000000000000000,0.00004368890000000000
120.00000000000000000000,0.00004228430000000000
120.00000000000000000000,0.00004145210000000000
120.00000000000000000000,0.00004125250000000000
120.00000000000000000000,0.00004165590000000000
120.00000000000000000000,0.00004211480000000000
120.00000000000000000000,0.00004099490000000000
121.00000000000000000000,0.00003823190000000000
121.00000000000000000000,0.00003608090000000000
121.00000000000000000000,0.00003619510000000000
121.00000000000000000000,0.00003928840000000000
121.00000000000000000000,0.00004070000000000000
121.00000000000000000000,0.00003805340000000000
121.00000000000000000000,0.00003903940000000000
121.00000000000000000000,0.00004226330000000000
121.00000000000000000000,0.00004249810000000000
121.00000000000000000000,0.00004382820000000000
121.00000000000000000000,0.00004538220000000000
121.00000000000000000000,0.00004559870000000000
121.00000000000000000000,0.00004449960000000000
121.00000000000000000000,0.00004327460000000000
121.00000000000000000000,0.00004196320000000000
121.00000000000000000000,0.00004066330000000000
121.00000000000000000000,0.00004127260000000000
121.00000000000000000000,0.00004397660000000000
121.00000000000000000000,0.00004510210000000000
121.00000000000000000000,0.00004401570000000000
122.00000000000000000000,0.00004318040000000000
122.00000000000000000000,0.00004089290000000000
122.00000000000000000000,0.00003685790000000000
122.00000000000000000000,0.00003437060000000000
122.00000000000000000000,0.00003551510000000000
122.00000000000000000000,0.00003874070000000000
122.00000000000000000000,0.00004171120000000000
122.00000000000000000000,0.00004147350000000000
122.00000000000000000000,0.00003704370000000000
122.00000000000000000000,0.00003391820000000000
122.00000000000000000000,0.00003662340000000000
122.00000000000000000000,0.00003818190000000000
122.00000000000000000000,0.00003794750000000000
122.00000000000000000000,0.00004044880000000000
122.00000000000000000000,0.00004441530000000000
122.00000000000000000000,0.00004563360000000000
122.00000000000000000000,0.00004690180000000000
122.00000000000000000000,0.00004635140000000000
122.00000000000000000000,0.00004506890000000000
122.00000000000000000000,0.00004827760000000000
123.00000000000000000000,0.00004874630000000000
123.00000000000000000000,0.00004644170000000000
123.00000000000000000000,0.00004609130000000000
123.00000000000000000000,0.00004914510000000000
123.00000000000000000000,0.00005012280000000000
123.00000000000000000000,0.00004482280000000000
123.00000000000000000000,0.00003694640000000000
123.00000000000000000000,0.00003387470000000000
123.00000000000000000000,0.00003740840000000000
123.00000000000000000000,0.00004298480000000000
123.00000000000000000000,0.00004848820000000000
123.00000000000000000000,0.00005130670000000000
123.00000000000000000000,0.00004878380000000000
123.00000000000000000000,0.00004265840000000000
123.00000000000000000000,0.00003754570000000000
123.00000000000000000000,0.00003604820000000000
123.00000000000000000000,0.00004129800000000000
123.00000000000000000000,0.00004690260000000000
123.00000000000000000000,0.00004626830000000000
123.00000000000000000000,0.00004567730000000000
124.00000000000000000000,0.00004618030000000000
124.00000000000000000000,0.00004492020000000000
124.00000000000000000000,0.00004276950000000000
124.00000000000000000000,0.00004341960000000000
124.00000000000000000000,0.00004575890000000000
124.00000000000000000000,0.00004664670000000000
124.00000000000000000000,0.00004508490000000000
124.00000000000000000000,0.00004250330000000000
124.00000000000000000000,0.00004348420000000000
124.00000000000000000000,0.00004707580000000000
124.00000000000000000000,0.00004927270000000000
124.00000000000000000000,0.00004909750000000000
124.00000000000000000000,0.00004796910000000000
124.00000000000000000000,0.00004629260000000000
124.00000000000000000000,0.00004188230000000000
124.00000000000000000000,0.00003699060000000000
124.00000000000000000000,0.00003522600000000000
124.00000000000000000000,0.00003611300000000000
124.00000000000000000000,0.00003688430000000000
124.00000000000000000000,0.00003668620000000000
125.00000000000000000000,0.00003717280000000000
125.00000000000000000000,0.00003578060000000000
125.00000000000000000000,0.00003133640000000000
125.00000000000000000000,0.00003104050000000000
125.00000000000000000000,0.00003725430000000000
125.00000000000000000000,0.00004411040000000000
125.00000000000000000000,0.00004467930000000000
125.00000000000000000000,0.00004061550000000000
125.00000000000000000000,0.00004183130000000000
125.00000000000000000000,0.00004377840000000000
125.00000000000000000000,0.00004340970000000000
125.00000000000000000000,0.00004357930000000000
125.00000000000000000000,0.00004199060000000000
125.00000000000000000000,0.00003802520000000000
125.00000000000000000000,0.00003431390000000000
125.00000000000000000000,0.00003319540000000000
125.00000000000000000000,0.00003322830000000000
125.00000000000000000000,0.00003322810000000000
125.00000000000000000000,0.00003441280000000000
125.00000000000000000000,0.00003714980000000000
126.00000000000000000000,0.00003889630000000000
126.00000000000000000000,0.00003838580000000000
126.00000000000000000000,0.00003784480000000000
126.00000000000000000000,0.00003886550000000000
126.00000000000000000000,0.00004035930000000000
126.00000000000000000000,0.00004137790000000000
126.00000000000000000000,0.00004071080000000000
126.00000000000000000000,0.00003990980000000000
126.00000000000000000000,0.00003976460000000000
126.00000000000000000000,0.00004002370000000000
126.00000000000000000000,0.00004122750000000000
126.00000000000000000000,0.00004216560000000000
126.00000000000000000000,0.00004045140000000000
126.00000000000000000000,0.00003766900000000000
126.00000000000000000000,0.00003476710000000000
126.00000000000000000000,0.00003602310000000000
126.00000000000000000000,0.00004209340000000000
126.00000000000000000000,0.00004605460000000000
126.00000000000000000000,0.00004448450000000000
126.00000000000000000000,0.00003930600000000000
127.00000000000000000000,0.00003723290000000000
127.00000000000000000000,0.00003838400000000000
127.00000000000000000000,0.00003945880000000000
127.00000000000000000000,0.00003387340000000000
127.00000000000000000000,0.00002896150000000000
127.00000000000000000000,0.00003217780000000000
127.00000000000000000000,0.00003674100000000000
127.00000000000000000000,0.00003649870000000000
127.00000000000000000000,0.00003483770000000000
127.00000000000000000000,0.00003542700000000000
127.00000000000000000000,0.00003519370000000000
127.00000000000000000000,0.00003329080000000000
127.00000000000000000000,0.00003113380000000000
127.00000000000000000000,0.00003266620000000000
127.00000000000000000000,0.00003689440000000000
127.00000000000000000000,0.00003920610000000000
127.00000000000000000000,0.00003718930000000000
127.00000000000000000000,0.00003562770000000000
127.00000000000000000000,0.00003626710000000000
127.00000000000000000000,0.00003626310000000000
128.00000000000000000000,0.00003383940000000000
128.00000000000000000000,0.00003408920000000000
128.00000000000000000000,0.00003910930000000000
128.00000000000000000000,0.00004454160000000000
