Frame,EMG1
1.00000000000000000000,0.00001282060000000000
1.00000000000000000000,0.00000416213000000000
1.00000000000000000000,-0.00000671907000000000
1.00000000000000000000,-0.00001404660000000000
1.00000000000000000000,-0.00001554500000000000
1.00000000000000000000,-0.00001127410000000000
1.00000000000000000000,-0.00000464353000000000
1.00000000000000000000,0.00000021104200000000
1.00000000000000000000,0.00000380452000000000
1.00000000000000000000,0.00000935104000000000
1.00000000000000000000,0.00001777150000000000
1.00000000000000000000,0.00002620090000000000
1.00000000000000000000,0.00003132600000000000
1.00000000000000000000,0.00003182790000000000
1.00000000000000000000,0.00003132640000000000
1.00000000000000000000,0.00003351390000000000
1.00000000000000000000,0.00003502250000000000
1.00000000000000000000,0.00003122800000000000
1.00000000000000000000,0.00002382170000000000
1.00000000000000000000,0.00001740840000000000
2.00000000000000000000,0.00001289770000000000
2.00000000000000000000,0.00000762596000000000
2.00000000000000000000,0.00000046287700000000
2.00000000000000000000,-0.00000744002000000000
2.00000000000000000000,-0.00001380090000000000
2.00000000000000000000,-0.00001812270000000000
2.00000000000000000000,-0.00002251670000000000
2.00000000000000000000,-0.00002510770000000000
2.00000000000000000000,-0.00002216500000000000
2.00000000000000000000,-0.00001135430000000000
2.00000000000000000000,0.00000356460000000000
2.00000000000000000000,0.00001901540000000000
2.00000000000000000000,0.00004073170000000000
2.00000000000000000000,0.00006910870000000000
2.00000000000000000000,0.00009373030000000001
2.00000000000000000000,0.00010654200000000000
2.00000000000000000000,0.00010859200000000001
2.00000000000000000000,0.00010105300000000000
2.00000000000000000000,0.00008562580000000000
2.00000000000000000000,0.00006981169999999999
3.00000000000000000000,0.00005825200000000000
3.00000000000000000000,0.00005116620000000000
3.00000000000000000000,0.00004682840000000000
3.00000000000000000000,0.00004063080000000000
3.00000000000000000000,0.00003035360000000000
3.00000000000000000000,0.00001911930000000000
3.00000000000000000000,0.00000927424000000000
3.00000000000000000000,-0.00000046886100000000
3.00000000000000000000,-0.00001070990000000000
3.00000000000000000000,-0.00001515330000000000
3.00000000000000000000,-0.00000502031000000000
3.00000000000000000000,0.00001917320000000000
3.00000000000000000000,0.00004103540000000000
3.00000000000000000000,0.00003885650000000000
3.00000000000000000000,0.00001655450000000000
3.00000000000000000000,-0.00000555117000000000
3.00000000000000000000,-0.00001937190000000000
3.00000000000000000000,-0.00002014290000000000
3.00000000000000000000,-0.00000411421000000000
3.00000000000000000000,0.00002607530000000000
4.00000000000000000000,0.00006551620000000000
4.00000000000000000000,0.00010798400000000000
4.00000000000000000000,0.00014673099999999999
4.00000000000000000000,0.00017655399999999999
4.00000000000000000000,0.00019031600000000000
4.00000000000000000000,0.00018617199999999999
4.00000000000000000000,0.00017004699999999999
4.00000000000000000000,0.00014826900000000000
4.00000000000000000000,0.00012525599999999999
4.00000000000000000000,0.00010268500000000000
4.00000000000000000000,0.00008098000000000000
4.00000000000000000000,0.00006168190000000000
4.00000000000000000000,0.00004630800000000000
4.00000000000000000000,0.00003406110000000000
4.00000000000000000000,0.00002381520000000000
4.00000000000000000000,0.00001590360000000000
4.00000000000000000000,0.00001116660000000000
4.00000000000000000000,0.00000867610000000000
4.00000000000000000000,0.00000775976000000000
4.00000000000000000000,0.00000480713000000000
5.00000000000000000000,-0.00000087641800000000
5.00000000000000000000,-0.00000432590000000000
5.00000000000000000000,-0.00000105133000000000
5.00000000000000000000,0.00000803096000000000
5.00000000000000000000,0.00002112730000000000
5.00000000000000000000,0.00004037910000000000
5.00000000000000000000,0.00006160740000000000
5.00000000000000000000,0.00007335720000000000
5.00000000000000000000,0.00007100940000000000
5.00000000000000000000,0.00006234700000000000
5.00000000000000000000,0.00005292460000000000
5.00000000000000000000,0.00004361800000000000
5.00000000000000000000,0.00003642600000000000
5.00000000000000000000,0.00003235270000000000
5.00000000000000000000,0.00003108320000000000
5.00000000000000000000,0.00003113440000000000
5.00000000000000000000,0.00003184620000000000
5.00000000000000000000,0.00003313800000000000
5.00000000000000000000,0.00003351660000000000
5.00000000000000000000,0.00003091070000000000
6.00000000000000000000,0.00002704900000000000
6.00000000000000000000,0.00002467160000000000
6.00000000000000000000,0.00002363760000000000
6.00000000000000000000,0.00002137010000000000
6.00000000000000000000,0.00001413320000000000
6.00000000000000000000,0.00000480686000000000
6.00000000000000000000,0.00000092882600000000
6.00000000000000000000,0.00000172084000000000
6.00000000000000000000,-0.00000372053000000000
6.00000000000000000000,-0.00001417690000000000
6.00000000000000000000,-0.00001544220000000000
6.00000000000000000000,-0.00000460453000000000
6.00000000000000000000,0.00000791808000000000
6.00000000000000000000,0.00001548170000000000
6.00000000000000000000,0.00002001630000000000
6.00000000000000000000,0.00002223990000000000
6.00000000000000000000,0.00002444800000000000
6.00000000000000000000,0.00002569330000000000
6.00000000000000000000,0.00001912060000000000
6.00000000000000000000,0.00000094019000000000
7.00000000000000000000,-0.00002477440000000000
7.00000000000000000000,-0.00004899950000000000
7.00000000000000000000,-0.00006369760000000000
7.00000000000000000000,-0.00006334900000000001
7.00000000000000000000,-0.00004895700000000000
7.00000000000000000000,-0.00002699790000000000
7.00000000000000000000,-0.00000513008000000000
7.00000000000000000000,0.00001363990000000000
7.00000000000000000000,0.00003343520000000000
7.00000000000000000000,0.00006035720000000000
7.00000000000000000000,0.00009081030000000000
7.00000000000000000000,0.00012349900000000000
7.00000000000000000000,0.00016683700000000000
7.00000000000000000000,0.00021990300000000000
7.00000000000000000000,0.00025844699999999997
7.00000000000000000000,0.00026944300000000002
7.00000000000000000000,0.00026570000000000001
7.00000000000000000000,0.00025614200000000000
7.00000000000000000000,0.00024451799999999999
7.00000000000000000000,0.00022675800000000000
8.00000000000000000000,0.00020290999999999999
8.00000000000000000000,0.00017773499999999999
8.00000000000000000000,0.00015394399999999999
8.00000000000000000000,0.00013079600000000000
8.00000000000000000000,0.00010826700000000000
8.00000000000000000000,0.00008699590000000000
8.00000000000000000000,0.00006662539999999999
8.00000000000000000000,0.00004858040000000000
8.00000000000000000000,0.00003530590000000000
8.00000000000000000000,0.00002723470000000000
8.00000000000000000000,0.00001970280000000000
8.00000000000000000000,0.00000881898000000000
8.00000000000000000000,-0.00000367810000000000
8.00000000000000000000,-0.00001165740000000000
8.00000000000000000000,-0.00001530750000000000
8.00000000000000000000,-0.00001867630000000000
8.00000000000000000000,-0.00002512660000000000
8.00000000000000000000,-0.00003647160000000000
8.00000000000000000000,-0.00004914940000000000
8.00000000000000000000,-0.00005565700000000000
9.00000000000000000000,-0.00005227560000000000
9.00000000000000000000,-0.00004171870000000000
9.00000000000000000000,-0.00003490060000000000
9.00000000000000000000,-0.00003752650000000000
9.00000000000000000000,-0.00004826160000000000
9.00000000000000000000,-0.00006604370000000000
9.00000000000000000000,-0.00008912380000000000
9.00000000000000000000,-0.00011281600000000000
9.00000000000000000000,-0.00012786899999999999
9.00000000000000000000,-0.00012831900000000000
9.00000000000000000000,-0.00011634899999999999
9.00000000000000000000,-0.00009751920000000000
9.00000000000000000000,-0.00007296870000000000
9.00000000000000000000,-0.00004186080000000000
9.00000000000000000000,-0.00000874734000000000
9.00000000000000000000,0.00002191230000000000
9.00000000000000000000,0.00005219740000000000
9.00000000000000000000,0.00008593510000000000
9.00000000000000000000,0.00012227300000000000
9.00000000000000000000,0.00015596800000000001
10.00000000000000000000,0.00018277899999999999
10.00000000000000000000,0.00020188300000000000
10.00000000000000000000,0.00021560300000000000
10.00000000000000000000,0.00022096299999999999
10.00000000000000000000,0.00020925800000000001
10.00000000000000000000,0.00018183100000000000
10.00000000000000000000,0.00015018000000000000
10.00000000000000000000,0.00011994700000000000
10.00000000000000000000,0.00008958630000000000
10.00000000000000000000,0.00005859720000000000
10.00000000000000000000,0.00003097030000000000
10.00000000000000000000,0.00000578569000000000
10.00000000000000000000,-0.00001927410000000000
10.00000000000000000000,-0.00004349520000000000
10.00000000000000000000,-0.00006247690000000000
10.00000000000000000000,-0.00007144630000000000
10.00000000000000000000,-0.00007055840000000000
10.00000000000000000000,-0.00006268210000000000
10.00000000000000000000,-0.00005101470000000000
10.00000000000000000000,-0.00003399960000000000
11.00000000000000000000,-0.00000819020000000000
11.00000000000000000000,0.00002634850000000000
11.00000000000000000000,0.00006270310000000001
11.00000000000000000000,0.00009429500000000000
11.00000000000000000000,0.00011858200000000000
11.00000000000000000000,0.00013359099999999999
11.00000000000000000000,0.00013821999999999999
11.00000000000000000000,0.00013359200000000000
11.00000000000000000000,0.00011962000000000000
11.00000000000000000000,0.00009889890000000000
11.00000000000000000000,0.00007913209999999999
11.00000000000000000000,0.00006266120000000000
11.00000000000000000000,0.00004664730000000000
11.00000000000000000000,0.00003440150000000000
11.00000000000000000000,0.00002595630000000000
11.00000000000000000000,0.00001718290000000000
11.00000000000000000000,0.00001167770000000000
11.00000000000000000000,0.00000917159000000000
11.00000000000000000000,0.00000722650000000000
11.00000000000000000000,0.00000661110000000000
12.00000000000000000000,0.00000516476000000000
12.00000000000000000000,0.00000193239000000000
12.00000000000000000000,-0.00000035582700000000
12.00000000000000000000,-0.00000041625700000000
12.00000000000000000000,0.00000161485000000000
12.00000000000000000000,0.00000300686000000000
12.00000000000000000000,0.00000283501000000000
12.00000000000000000000,0.00000318158000000000
12.00000000000000000000,0.00000355845000000000
12.00000000000000000000,0.00000154347000000000
12.00000000000000000000,-0.00000244660000000000
12.00000000000000000000,-0.00000684687000000000
12.00000000000000000000,-0.00001113820000000000
12.00000000000000000000,-0.00001245920000000000
12.00000000000000000000,-0.00000888897000000000
12.00000000000000000000,-0.00000444852000000000
12.00000000000000000000,-0.00000275639000000000
12.00000000000000000000,0.00000233267000000000
12.00000000000000000000,0.00001428810000000000
12.00000000000000000000,0.00002875180000000000
13.00000000000000000000,0.00004420940000000000
13.00000000000000000000,0.00006020190000000000
13.00000000000000000000,0.00006863160000000000
13.00000000000000000000,0.00006601930000000000
13.00000000000000000000,0.00006060940000000000
13.00000000000000000000,0.00006063110000000000
13.00000000000000000000,0.00006629449999999999
13.00000000000000000000,0.00006971200000000000
13.00000000000000000000,0.00006902069999999999
13.00000000000000000000,0.00007016880000000000
13.00000000000000000000,0.00007690030000000001
13.00000000000000000000,0.00008889630000000000
13.00000000000000000000,0.00010131000000000000
13.00000000000000000000,0.00010854899999999999
13.00000000000000000000,0.00010859600000000000
13.00000000000000000000,0.00010148300000000000
13.00000000000000000000,0.00009042730000000000
13.00000000000000000000,0.00007878690000000000
13.00000000000000000000,0.00006732450000000000
13.00000000000000000000,0.00005578360000000000
14.00000000000000000000,0.00004409080000000000
14.00000000000000000000,0.00003277000000000000
14.00000000000000000000,0.00002290670000000000
14.00000000000000000000,0.00001358620000000000
14.00000000000000000000,0.00000241526000000000
14.00000000000000000000,-0.00000866618000000000
14.00000000000000000000,-0.00001397380000000000
14.00000000000000000000,-0.00000702649000000000
14.00000000000000000000,0.00001492580000000000
14.00000000000000000000,0.00004267250000000000
14.00000000000000000000,0.00006533130000000000
14.00000000000000000000,0.00008102840000000000
14.00000000000000000000,0.00008932050000000000
14.00000000000000000000,0.00008985680000000000
14.00000000000000000000,0.00008295100000000000
14.00000000000000000000,0.00007191690000000000
14.00000000000000000000,0.00005957950000000000
14.00000000000000000000,0.00004557500000000000
14.00000000000000000000,0.00002904560000000000
14.00000000000000000000,0.00001379830000000000
15.00000000000000000000,0.00000518343000000000
15.00000000000000000000,0.00000380345000000000
15.00000000000000000000,0.00000523323000000000
15.00000000000000000000,0.00000720981000000000
15.00000000000000000000,0.00001353790000000000
15.00000000000000000000,0.00002289250000000000
15.00000000000000000000,0.00002651900000000000
15.00000000000000000000,0.00002321160000000000
15.00000000000000000000,0.00002247650000000000
15.00000000000000000000,0.00002907200000000000
15.00000000000000000000,0.00004213340000000000
15.00000000000000000000,0.00005517500000000000
15.00000000000000000000,0.00005988360000000000
15.00000000000000000000,0.00005917130000000000
15.00000000000000000000,0.00005898930000000000
15.00000000000000000000,0.00005849190000000000
15.00000000000000000000,0.00005468440000000000
15.00000000000000000000,0.00004835970000000000
15.00000000000000000000,0.00004527100000000000
15.00000000000000000000,0.00004541940000000000
16.00000000000000000000,0.00004064980000000000
16.00000000000000000000,0.00002388390000000000
16.00000000000000000000,-0.00000228082000000000
16.00000000000000000000,-0.00002984290000000000
16.00000000000000000000,-0.00005640870000000000
16.00000000000000000000,-0.00008612460000000001
16.00000000000000000000,-0.00011750400000000001
16.00000000000000000000,-0.00014098400000000000
16.00000000000000000000,-0.00014920100000000001
16.00000000000000000000,-0.00014064700000000001
16.00000000000000000000,-0.00011307700000000000
16.00000000000000000000,-0.00006115050000000000
16.00000000000000000000,0.00001656320000000000
16.00000000000000000000,0.00010766600000000000
16.00000000000000000000,0.00018977900000000000
16.00000000000000000000,0.00024626400000000000
16.00000000000000000000,0.00027056999999999998
16.00000000000000000000,0.00026881900000000000
16.00000000000000000000,0.00025589400000000000
16.00000000000000000000,0.00023860700000000000
17.00000000000000000000,0.00021575500000000001
17.00000000000000000000,0.00019383700000000001
17.00000000000000000000,0.00018044900000000001
17.00000000000000000000,0.00017434699999999999
17.00000000000000000000,0.00016561100000000000
17.00000000000000000000,0.00015018099999999999
17.00000000000000000000,0.00013225400000000000
17.00000000000000000000,0.00011447200000000000
17.00000000000000000000,0.00009730160000000000
17.00000000000000000000,0.00008024900000000000
17.00000000000000000000,0.00006399920000000000
17.00000000000000000000,0.00004954550000000000
17.00000000000000000000,0.00003747450000000000
17.00000000000000000000,0.00002450050000000000
17.00000000000000000000,0.00000864148000000000
17.00000000000000000000,-0.00000758011000000000
17.00000000000000000000,-0.00001861840000000000
17.00000000000000000000,-0.00002184180000000000
17.00000000000000000000,-0.00001869450000000000
17.00000000000000000000,-0.00000856249000000000
18.00000000000000000000,0.00000888498000000000
18.00000000000000000000,0.00002766050000000000
18.00000000000000000000,0.00003809470000000000
18.00000000000000000000,0.00003475880000000000
18.00000000000000000000,0.00001904360000000000
18.00000000000000000000,-0.00000418949000000000
18.00000000000000000000,-0.00003121840000000000
18.00000000000000000000,-0.00005563350000000000
18.00000000000000000000,-0.00007006650000000000
18.00000000000000000000,-0.00006922600000000000
18.00000000000000000000,-0.00005566050000000000
18.00000000000000000000,-0.00003983410000000000
18.00000000000000000000,-0.00002411350000000000
18.00000000000000000000,-0.00000304647000000000
18.00000000000000000000,0.00002104710000000000
18.00000000000000000000,0.00003880040000000000
18.00000000000000000000,0.00004750330000000000
18.00000000000000000000,0.00005302360000000000
18.00000000000000000000,0.00005688410000000000
18.00000000000000000000,0.00005498070000000000
19.00000000000000000000,0.00004643420000000000
19.00000000000000000000,0.00003367510000000000
19.00000000000000000000,0.00001881280000000000
19.00000000000000000000,0.00000218233000000000
19.00000000000000000000,-0.00001365710000000000
19.00000000000000000000,-0.00002437270000000000
19.00000000000000000000,-0.00002885460000000000
19.00000000000000000000,-0.00002923650000000000
19.00000000000000000000,-0.00002942720000000000
19.00000000000000000000,-0.00003667360000000000
19.00000000000000000000,-0.00005470240000000000
19.00000000000000000000,-0.00007362580000000000
19.00000000000000000000,-0.00007284330000000000
19.00000000000000000000,-0.00004532930000000000
19.00000000000000000000,-0.00000432842000000000
19.00000000000000000000,0.00003640250000000000
19.00000000000000000000,0.00007373310000000000
19.00000000000000000000,0.00010889200000000000
19.00000000000000000000,0.00014499200000000001
19.00000000000000000000,0.00017883800000000001
20.00000000000000000000,0.00020195000000000000
20.00000000000000000000,0.00021146800000000000
20.00000000000000000000,0.00020262200000000001
20.00000000000000000000,0.00017953399999999999
20.00000000000000000000,0.00015144400000000001
20.00000000000000000000,0.00012309899999999999
20.00000000000000000000,0.00009487060000000001
20.00000000000000000000,0.00007029039999999999
20.00000000000000000000,0.00005298300000000000
20.00000000000000000000,0.00004292260000000000
20.00000000000000000000,0.00003742500000000000
20.00000000000000000000,0.00003289800000000000
20.00000000000000000000,0.00002822590000000000
20.00000000000000000000,0.00002220800000000000
20.00000000000000000000,0.00001611550000000000
20.00000000000000000000,0.00001217750000000000
20.00000000000000000000,0.00001088470000000000
20.00000000000000000000,0.00000779015000000000
20.00000000000000000000,0.00000421735000000000
20.00000000000000000000,0.00000346985000000000
21.00000000000000000000,0.00000224003000000000
21.00000000000000000000,-0.00000115097000000000
21.00000000000000000000,-0.00000092031000000000
21.00000000000000000000,0.00000618300000000000
21.00000000000000000000,0.00001492040000000000
21.00000000000000000000,0.00002112050000000000
21.00000000000000000000,0.00002296820000000000
21.00000000000000000000,0.00002141360000000000
21.00000000000000000000,0.00002330710000000000
21.00000000000000000000,0.00002903190000000000
21.00000000000000000000,0.00003341720000000000
21.00000000000000000000,0.00003307690000000000
21.00000000000000000000,0.00003141430000000000
21.00000000000000000000,0.00003223160000000000
21.00000000000000000000,0.00003349840000000000
21.00000000000000000000,0.00003247390000000000
21.00000000000000000000,0.00003066490000000000
21.00000000000000000000,0.00003127910000000000
21.00000000000000000000,0.00003430660000000000
21.00000000000000000000,0.00003826290000000000
22.00000000000000000000,0.00004020890000000000
22.00000000000000000000,0.00003903820000000000
22.00000000000000000000,0.00003804800000000000
22.00000000000000000000,0.00004078090000000000
22.00000000000000000000,0.00004391440000000000
22.00000000000000000000,0.00004221490000000000
22.00000000000000000000,0.00003654490000000000
22.00000000000000000000,0.00003223030000000000
22.00000000000000000000,0.00003037500000000000
22.00000000000000000000,0.00003127840000000000
22.00000000000000000000,0.00003219370000000000
22.00000000000000000000,0.00002784820000000000
22.00000000000000000000,0.00001807010000000000
22.00000000000000000000,0.00000493474000000000
22.00000000000000000000,-0.00000598435000000000
22.00000000000000000000,-0.00000847362000000000
22.00000000000000000000,-0.00000566744000000000
22.00000000000000000000,0.00000047473000000000
22.00000000000000000000,0.00001579770000000000
22.00000000000000000000,0.00004238970000000000
23.00000000000000000000,0.00007314040000000000
23.00000000000000000000,0.00009925140000000000
23.00000000000000000000,0.00011564499999999999
23.00000000000000000000,0.00012145100000000000
23.00000000000000000000,0.00011871900000000000
23.00000000000000000000,0.00011148300000000000
23.00000000000000000000,0.00010408500000000000
23.00000000000000000000,0.00009943569999999999
23.00000000000000000000,0.00009665970000000001
23.00000000000000000000,0.00009141659999999999
23.00000000000000000000,0.00008102010000000000
23.00000000000000000000,0.00006577130000000000
23.00000000000000000000,0.00004898150000000000
23.00000000000000000000,0.00003713260000000000
23.00000000000000000000,0.00003297840000000000
23.00000000000000000000,0.00002887620000000000
23.00000000000000000000,0.00002042370000000000
23.00000000000000000000,0.00001211250000000000
23.00000000000000000000,0.00000575078000000000
23.00000000000000000000,-0.00000518506000000000
24.00000000000000000000,-0.00002041480000000000
24.00000000000000000000,-0.00002678820000000000
24.00000000000000000000,-0.00001453550000000000
24.00000000000000000000,0.00000968961000000000
24.00000000000000000000,0.00003576560000000000
24.00000000000000000000,0.00005823310000000000
24.00000000000000000000,0.00006738400000000000
24.00000000000000000000,0.00005532480000000000
24.00000000000000000000,0.00002781680000000000
24.00000000000000000000,-0.00000055978100000000
24.00000000000000000000,-0.00001709700000000000
24.00000000000000000000,-0.00001395040000000000
24.00000000000000000000,0.00000655963000000000
24.00000000000000000000,0.00003532300000000000
24.00000000000000000000,0.00006653510000000001
24.00000000000000000000,0.00009616360000000000
24.00000000000000000000,0.00011801300000000000
24.00000000000000000000,0.00012523499999999999
24.00000000000000000000,0.00010910200000000000
24.00000000000000000000,0.00007224800000000000
25.00000000000000000000,0.00003563990000000000
25.00000000000000000000,0.00001352290000000000
25.00000000000000000000,-0.00000089573100000000
25.00000000000000000000,-0.00002132730000000000
25.00000000000000000000,-0.00004960820000000000
25.00000000000000000000,-0.00006984570000000000
25.00000000000000000000,-0.00006938010000000000
25.00000000000000000000,-0.00004798050000000000
25.00000000000000000000,-0.00001372210000000000
25.00000000000000000000,0.00001798260000000000
25.00000000000000000000,0.00003433340000000000
25.00000000000000000000,0.00003541720000000000
25.00000000000000000000,0.00003391890000000000
25.00000000000000000000,0.00003886900000000000
25.00000000000000000000,0.00005388280000000000
25.00000000000000000000,0.00007833179999999999
25.00000000000000000000,0.00011244400000000000
25.00000000000000000000,0.00015784600000000001
25.00000000000000000000,0.00020516200000000000
25.00000000000000000000,0.00023680899999999999
26.00000000000000000000,0.00024426599999999998
26.00000000000000000000,0.00023284600000000001
26.00000000000000000000,0.00021149000000000000
26.00000000000000000000,0.00018658999999999999
26.00000000000000000000,0.00015969899999999999
26.00000000000000000000,0.00013199600000000000
26.00000000000000000000,0.00010784600000000000
26.00000000000000000000,0.00009083980000000000
26.00000000000000000000,0.00007640970000000000
26.00000000000000000000,0.00005803890000000000
26.00000000000000000000,0.00003415900000000000
26.00000000000000000000,0.00000859939000000000
26.00000000000000000000,-0.00000918675000000000
26.00000000000000000000,-0.00001782090000000000
26.00000000000000000000,-0.00002515670000000000
26.00000000000000000000,-0.00003213810000000000
26.00000000000000000000,-0.00003781960000000000
26.00000000000000000000,-0.00004163380000000000
26.00000000000000000000,-0.00004347560000000000
26.00000000000000000000,-0.00004528490000000000
27.00000000000000000000,-0.00004799920000000000
27.00000000000000000000,-0.00004816000000000000
27.00000000000000000000,-0.00004210110000000000
27.00000000000000000000,-0.00003430960000000000
27.00000000000000000000,-0.00003015510000000000
27.00000000000000000000,-0.00002980170000000000
27.00000000000000000000,-0.00003000470000000000
27.00000000000000000000,-0.00002683460000000000
27.00000000000000000000,-0.00001830910000000000
27.00000000000000000000,-0.00000869299000000000
27.00000000000000000000,-0.00000251701000000000
27.00000000000000000000,0.00000046363200000000
27.00000000000000000000,0.00000097886200000000
27.00000000000000000000,0.00000097526900000000
27.00000000000000000000,0.00000439483000000000
27.00000000000000000000,0.00001070570000000000
27.00000000000000000000,0.00001406570000000000
27.00000000000000000000,0.00001503310000000000
27.00000000000000000000,0.00001796200000000000
27.00000000000000000000,0.00002177040000000000
28.00000000000000000000,0.00002368890000000000
28.00000000000000000000,0.00002221900000000000
28.00000000000000000000,0.00002271940000000000
28.00000000000000000000,0.00002700960000000000
28.00000000000000000000,0.00002821960000000000
28.00000000000000000000,0.00002396470000000000
28.00000000000000000000,0.00001898940000000000
28.00000000000000000000,0.00001596980000000000
28.00000000000000000000,0.00001421610000000000
28.00000000000000000000,0.00001366800000000000
28.00000000000000000000,0.00001316620000000000
28.00000000000000000000,0.00001339810000000000
28.00000000000000000000,0.00001748430000000000
28.00000000000000000000,0.00002630300000000000
28.00000000000000000000,0.00003834420000000000
28.00000000000000000000,0.00005188550000000000
28.00000000000000000000,0.00006271620000000000
28.00000000000000000000,0.00006470339999999999
28.00000000000000000000,0.00005501930000000000
28.00000000000000000000,0.00003717180000000000
29.00000000000000000000,0.00002031430000000000
29.00000000000000000000,0.00001534060000000000
29.00000000000000000000,0.00002760650000000000
29.00000000000000000000,0.00005477030000000000
29.00000000000000000000,0.00008398160000000000
29.00000000000000000000,0.00010352500000000000
29.00000000000000000000,0.00011442900000000000
29.00000000000000000000,0.00012099400000000000
29.00000000000000000000,0.00011811800000000000
29.00000000000000000000,0.00010120200000000000
29.00000000000000000000,0.00008157590000000000
29.00000000000000000000,0.00007132960000000000
29.00000000000000000000,0.00006906870000000001
29.00000000000000000000,0.00006863600000000000
29.00000000000000000000,0.00007105429999999999
29.00000000000000000000,0.00007476519999999999
29.00000000000000000000,0.00007228640000000001
29.00000000000000000000,0.00006137600000000000
29.00000000000000000000,0.00004798150000000000
29.00000000000000000000,0.00004106300000000000
30.00000000000000000000,0.00004438720000000000
30.00000000000000000000,0.00005677280000000000
30.00000000000000000000,0.00007418650000000001
30.00000000000000000000,0.00009146740000000000
30.00000000000000000000,0.00010538200000000000
30.00000000000000000000,0.00011308700000000000
30.00000000000000000000,0.00011348700000000001
30.00000000000000000000,0.00010943500000000000
30.00000000000000000000,0.00010103500000000000
30.00000000000000000000,0.00008824620000000000
30.00000000000000000000,0.00007505330000000000
30.00000000000000000000,0.00006294670000000000
30.00000000000000000000,0.00005051580000000000
30.00000000000000000000,0.00003877960000000000
30.00000000000000000000,0.00003032840000000000
30.00000000000000000000,0.00002245840000000000
30.00000000000000000000,0.00001457260000000000
30.00000000000000000000,0.00001043140000000000
30.00000000000000000000,0.00000917917000000000
30.00000000000000000000,0.00001019510000000000
31.00000000000000000000,0.00001255390000000000
31.00000000000000000000,0.00001422050000000000
31.00000000000000000000,0.00001548830000000000
31.00000000000000000000,0.00001772090000000000
31.00000000000000000000,0.00001954800000000000
31.00000000000000000000,0.00001935540000000000
31.00000000000000000000,0.00001861390000000000
31.00000000000000000000,0.00001856660000000000
31.00000000000000000000,0.00001893400000000000
31.00000000000000000000,0.00001870610000000000
31.00000000000000000000,0.00001794440000000000
31.00000000000000000000,0.00001969960000000000
31.00000000000000000000,0.00002567760000000000
31.00000000000000000000,0.00003017190000000000
31.00000000000000000000,0.00002608740000000000
31.00000000000000000000,0.00001206790000000000
31.00000000000000000000,-0.00000419487000000000
31.00000000000000000000,-0.00001387840000000000
31.00000000000000000000,-0.00001850180000000000
31.00000000000000000000,-0.00002224900000000000
32.00000000000000000000,-0.00002179470000000000
32.00000000000000000000,-0.00001649700000000000
32.00000000000000000000,-0.00001088070000000000
32.00000000000000000000,-0.00000629450000000000
32.00000000000000000000,0.00000139882000000000
32.00000000000000000000,0.00001974710000000000
32.00000000000000000000,0.00005387320000000000
32.00000000000000000000,0.00009445330000000001
32.00000000000000000000,0.00012516200000000001
32.00000000000000000000,0.00014349700000000000
32.00000000000000000000,0.00015196500000000000
32.00000000000000000000,0.00014956500000000000
32.00000000000000000000,0.00013378800000000000
32.00000000000000000000,0.00010781000000000000
32.00000000000000000000,0.00008533280000000000
32.00000000000000000000,0.00008094080000000000
32.00000000000000000000,0.00009392590000000000
32.00000000000000000000,0.00010942400000000000
32.00000000000000000000,0.00011633600000000001
32.00000000000000000000,0.00011404800000000000
33.00000000000000000000,0.00010531400000000000
33.00000000000000000000,0.00008958300000000000
33.00000000000000000000,0.00006936540000000000
33.00000000000000000000,0.00005077800000000000
33.00000000000000000000,0.00003665280000000000
33.00000000000000000000,0.00002742300000000000
33.00000000000000000000,0.00002005030000000000
33.00000000000000000000,0.00001046640000000000
33.00000000000000000000,0.00000046250400000000
33.00000000000000000000,-0.00000539397000000000
33.00000000000000000000,-0.00000616718000000000
33.00000000000000000000,-0.00000441077000000000
33.00000000000000000000,-0.00000412925000000000
33.00000000000000000000,-0.00000636774000000000
33.00000000000000000000,-0.00000806353000000000
33.00000000000000000000,-0.00000821221000000000
33.00000000000000000000,-0.00000544531000000000
33.00000000000000000000,0.00000080014500000000
33.00000000000000000000,0.00000613138000000000
33.00000000000000000000,0.00000785024000000000
34.00000000000000000000,0.00000820974000000000
34.00000000000000000000,0.00000793148000000000
34.00000000000000000000,0.00000756118000000000
34.00000000000000000000,0.00001008440000000000
34.00000000000000000000,0.00001418710000000000
34.00000000000000000000,0.00001484420000000000
34.00000000000000000000,0.00001282630000000000
34.00000000000000000000,0.00001061550000000000
34.00000000000000000000,0.00000889021000000000
34.00000000000000000000,0.00000920761000000000
34.00000000000000000000,0.00001036180000000000
34.00000000000000000000,0.00000792128000000000
34.00000000000000000000,-0.00000253749000000000
34.00000000000000000000,-0.00001661850000000000
34.00000000000000000000,-0.00002589340000000000
34.00000000000000000000,-0.00002905180000000000
34.00000000000000000000,-0.00002524080000000000
34.00000000000000000000,-0.00001487410000000000
34.00000000000000000000,-0.00000162511000000000
34.00000000000000000000,0.00001814840000000000
35.00000000000000000000,0.00004661220000000000
35.00000000000000000000,0.00007427780000000000
35.00000000000000000000,0.00009145669999999999
35.00000000000000000000,0.00009891830000000000
35.00000000000000000000,0.00010189899999999999
35.00000000000000000000,0.00010127600000000000
35.00000000000000000000,0.00009197770000000000
35.00000000000000000000,0.00007560450000000000
35.00000000000000000000,0.00006163730000000000
35.00000000000000000000,0.00005813310000000000
35.00000000000000000000,0.00006527500000000000
35.00000000000000000000,0.00007453710000000000
35.00000000000000000000,0.00007856210000000000
35.00000000000000000000,0.00007647880000000000
35.00000000000000000000,0.00007176759999999999
35.00000000000000000000,0.00006870640000000000
35.00000000000000000000,0.00006586380000000000
35.00000000000000000000,0.00005802910000000000
35.00000000000000000000,0.00004868720000000000
35.00000000000000000000,0.00004364890000000000
36.00000000000000000000,0.00004264970000000000
36.00000000000000000000,0.00004216610000000000
36.00000000000000000000,0.00004131170000000000
36.00000000000000000000,0.00004113470000000000
36.00000000000000000000,0.00004032990000000000
36.00000000000000000000,0.00003964710000000000
36.00000000000000000000,0.00004063350000000000
36.00000000000000000000,0.00004103930000000000
36.00000000000000000000,0.00003830130000000000
36.00000000000000000000,0.00002923410000000000
36.00000000000000000000,0.00001718500000000000
36.00000000000000000000,0.00001058620000000000
36.00000000000000000000,0.00001219580000000000
36.00000000000000000000,0.00001565890000000000
36.00000000000000000000,0.00001612470000000000
36.00000000000000000000,0.00001582860000000000
36.00000000000000000000,0.00001649440000000000
36.00000000000000000000,0.00001749520000000000
36.00000000000000000000,0.00001925070000000000
36.00000000000000000000,0.00002250220000000000
37.00000000000000000000,0.00002658380000000000
37.00000000000000000000,0.00003593460000000000
37.00000000000000000000,0.00005426340000000000
37.00000000000000000000,0.00007574469999999999
37.00000000000000000000,0.00009257720000000001
37.00000000000000000000,0.00010154200000000000
37.00000000000000000000,0.00010273700000000000
37.00000000000000000000,0.00010097300000000000
37.00000000000000000000,0.00009596030000000000
37.00000000000000000000,0.00008397700000000000
37.00000000000000000000,0.00006969220000000000
37.00000000000000000000,0.00005926780000000000
37.00000000000000000000,0.00005422150000000000
37.00000000000000000000,0.00005064810000000000
37.00000000000000000000,0.00004440770000000000
37.00000000000000000000,0.00003987040000000000
37.00000000000000000000,0.00003910910000000000
37.00000000000000000000,0.00003857290000000000
37.00000000000000000000,0.00003600100000000000
37.00000000000000000000,0.00003240660000000000
38.00000000000000000000,0.00002918080000000000
38.00000000000000000000,0.00002651250000000000
38.00000000000000000000,0.00002391090000000000
38.00000000000000000000,0.00002116370000000000
38.00000000000000000000,0.00001997490000000000
38.00000000000000000000,0.00001956850000000000
38.00000000000000000000,0.00001761600000000000
38.00000000000000000000,0.00001051440000000000
38.00000000000000000000,-0.00000323486000000000
38.00000000000000000000,-0.00001713660000000000
38.00000000000000000000,-0.00002165790000000000
38.00000000000000000000,-0.00001784600000000000
38.00000000000000000000,-0.00001387530000000000
38.00000000000000000000,-0.00001352660000000000
38.00000000000000000000,-0.00001312400000000000
38.00000000000000000000,-0.00000537137000000000
38.00000000000000000000,0.00001030130000000000
38.00000000000000000000,0.00002867980000000000
38.00000000000000000000,0.00004549300000000000
38.00000000000000000000,0.00005857950000000000
39.00000000000000000000,0.00006201570000000000
39.00000000000000000000,0.00004949150000000000
39.00000000000000000000,0.00002373500000000000
39.00000000000000000000,-0.00000615497000000000
39.00000000000000000000,-0.00002963460000000000
39.00000000000000000000,-0.00004197620000000000
39.00000000000000000000,-0.00004531540000000000
39.00000000000000000000,-0.00004053550000000000
39.00000000000000000000,-0.00002589150000000000
39.00000000000000000000,-0.00000420303000000000
39.00000000000000000000,0.00002090350000000000
39.00000000000000000000,0.00004688730000000000
39.00000000000000000000,0.00006955910000000000
39.00000000000000000000,0.00008752460000000000
39.00000000000000000000,0.00010523700000000000
39.00000000000000000000,0.00012633600000000000
39.00000000000000000000,0.00014420500000000001
39.00000000000000000000,0.00015028900000000001
39.00000000000000000000,0.00014409700000000001
39.00000000000000000000,0.00013393400000000000
40.00000000000000000000,0.00012908599999999999
40.00000000000000000000,0.00013144099999999999
40.00000000000000000000,0.00013780899999999999
40.00000000000000000000,0.00014385200000000000
40.00000000000000000000,0.00014596400000000000
40.00000000000000000000,0.00014586199999999999
40.00000000000000000000,0.00014223900000000000
40.00000000000000000000,0.00012740700000000001
40.00000000000000000000,0.00010461500000000000
40.00000000000000000000,0.00008217320000000000
40.00000000000000000000,0.00006363550000000000
40.00000000000000000000,0.00005035020000000000
40.00000000000000000000,0.00004156420000000000
40.00000000000000000000,0.00003430500000000000
40.00000000000000000000,0.00002658140000000000
40.00000000000000000000,0.00001891930000000000
40.00000000000000000000,0.00001075640000000000
40.00000000000000000000,0.00000428984000000000
40.00000000000000000000,0.00000209003000000000
40.00000000000000000000,0.00000109022000000000
41.00000000000000000000,-0.00000189348000000000
41.00000000000000000000,-0.00000330706000000000
41.00000000000000000000,-0.00000185269000000000
41.00000000000000000000,-0.00000095885700000000
41.00000000000000000000,-0.00000099066800000000
41.00000000000000000000,-0.00000175123000000000
41.00000000000000000000,-0.00000496035000000000
41.00000000000000000000,-0.00000747288000000000
41.00000000000000000000,-0.00000313577000000000
41.00000000000000000000,0.00000597515000000000
41.00000000000000000000,0.00001236330000000000
41.00000000000000000000,0.00001352980000000000
41.00000000000000000000,0.00001257480000000000
41.00000000000000000000,0.00001465780000000000
41.00000000000000000000,0.00001689920000000000
41.00000000000000000000,0.00001449140000000000
41.00000000000000000000,0.00000871338000000000
41.00000000000000000000,0.00000145680000000000
41.00000000000000000000,-0.00000170662000000000
41.00000000000000000000,0.00000252197000000000
42.00000000000000000000,0.00001071920000000000
42.00000000000000000000,0.00001790150000000000
42.00000000000000000000,0.00002186840000000000
42.00000000000000000000,0.00002326930000000000
42.00000000000000000000,0.00002277310000000000
42.00000000000000000000,0.00001730560000000000
42.00000000000000000000,0.00000705987000000000
42.00000000000000000000,0.00000057420300000000
42.00000000000000000000,0.00000631111000000000
42.00000000000000000000,0.00002379270000000000
42.00000000000000000000,0.00004519110000000000
42.00000000000000000000,0.00006152980000000000
42.00000000000000000000,0.00006845310000000000
42.00000000000000000000,0.00006600180000000000
42.00000000000000000000,0.00005791450000000000
42.00000000000000000000,0.00005068750000000000
42.00000000000000000000,0.00004748760000000000
42.00000000000000000000,0.00004913550000000000
42.00000000000000000000,0.00005726870000000000
42.00000000000000000000,0.00007254679999999999
43.00000000000000000000,0.00008955370000000000
43.00000000000000000000,0.00009778670000000000
43.00000000000000000000,0.00009529810000000000
43.00000000000000000000,0.00008754970000000001
43.00000000000000000000,0.00007738700000000000
43.00000000000000000000,0.00006786190000000000
43.00000000000000000000,0.00005962530000000000
43.00000000000000000000,0.00005366870000000000
43.00000000000000000000,0.00005178500000000000
43.00000000000000000000,0.00005445300000000000
43.00000000000000000000,0.00006108420000000000
43.00000000000000000000,0.00006908450000000000
43.00000000000000000000,0.00007374360000000000
43.00000000000000000000,0.00007486600000000000
43.00000000000000000000,0.00007568740000000000
43.00000000000000000000,0.00007510950000000000
43.00000000000000000000,0.00006881260000000001
43.00000000000000000000,0.00005609160000000000
43.00000000000000000000,0.00004415730000000000
43.00000000000000000000,0.00003981730000000000
44.00000000000000000000,0.00004124180000000000
44.00000000000000000000,0.00004229980000000000
44.00000000000000000000,0.00003992580000000000
44.00000000000000000000,0.00003430900000000000
44.00000000000000000000,0.00003087180000000000
44.00000000000000000000,0.00003203130000000000
44.00000000000000000000,0.00003406210000000000
44.00000000000000000000,0.00003535490000000000
44.00000000000000000000,0.00003708020000000000
44.00000000000000000000,0.00003712500000000000
44.00000000000000000000,0.00003338450000000000
44.00000000000000000000,0.00002973020000000000
44.00000000000000000000,0.00002683210000000000
44.00000000000000000000,0.00002079830000000000
44.00000000000000000000,0.00001145120000000000
44.00000000000000000000,0.00000320833000000000
44.00000000000000000000,0.00000028643400000000
44.00000000000000000000,0.00000167063000000000
44.00000000000000000000,0.00000510028000000000
44.00000000000000000000,0.00000935590000000000
45.00000000000000000000,0.00001098940000000000
45.00000000000000000000,0.00000834036000000000
45.00000000000000000000,0.00000550379000000000
45.00000000000000000000,0.00000724282000000000
45.00000000000000000000,0.00001897440000000000
45.00000000000000000000,0.00004324350000000000
45.00000000000000000000,0.00007293170000000001
45.00000000000000000000,0.00009794380000000000
45.00000000000000000000,0.00011103399999999999
45.00000000000000000000,0.00010303300000000000
45.00000000000000000000,0.00007259920000000000
45.00000000000000000000,0.00003614660000000000
45.00000000000000000000,0.00000819753000000000
45.00000000000000000000,-0.00000733144000000000
45.00000000000000000000,-0.00001427090000000000
45.00000000000000000000,-0.00001679260000000000
45.00000000000000000000,-0.00001562930000000000
45.00000000000000000000,-0.00001049990000000000
45.00000000000000000000,-0.00000080957900000000
45.00000000000000000000,0.00001058240000000000
46.00000000000000000000,0.00001992820000000000
46.00000000000000000000,0.00002946670000000000
46.00000000000000000000,0.00004570030000000000
46.00000000000000000000,0.00006810850000000000
46.00000000000000000000,0.00008879460000000001
46.00000000000000000000,0.00010304100000000000
46.00000000000000000000,0.00011311200000000000
46.00000000000000000000,0.00012058400000000000
46.00000000000000000000,0.00012252199999999999
46.00000000000000000000,0.00011721100000000000
46.00000000000000000000,0.00010776100000000000
46.00000000000000000000,0.00009735750000000000
46.00000000000000000000,0.00008630710000000001
46.00000000000000000000,0.00007176990000000001
46.00000000000000000000,0.00005323000000000000
46.00000000000000000000,0.00003354650000000000
46.00000000000000000000,0.00001588710000000000
46.00000000000000000000,0.00000530894000000000
46.00000000000000000000,0.00000264277000000000
46.00000000000000000000,0.00000432642000000000
47.00000000000000000000,0.00000810719000000000
47.00000000000000000000,0.00001359020000000000
47.00000000000000000000,0.00001894040000000000
47.00000000000000000000,0.00002438180000000000
47.00000000000000000000,0.00003063140000000000
47.00000000000000000000,0.00003421110000000000
47.00000000000000000000,0.00003424180000000000
47.00000000000000000000,0.00003336960000000000
47.00000000000000000000,0.00003385920000000000
47.00000000000000000000,0.00003518990000000000
47.00000000000000000000,0.00003607040000000000
47.00000000000000000000,0.00003696730000000000
47.00000000000000000000,0.00003831000000000000
47.00000000000000000000,0.00003878400000000000
47.00000000000000000000,0.00003716460000000000
47.00000000000000000000,0.00003528450000000000
47.00000000000000000000,0.00003476950000000000
47.00000000000000000000,0.00003576980000000000
47.00000000000000000000,0.00003726640000000000
47.00000000000000000000,0.00003589550000000000
48.00000000000000000000,0.00003047420000000000
48.00000000000000000000,0.00002411410000000000
48.00000000000000000000,0.00002154570000000000
48.00000000000000000000,0.00002450160000000000
48.00000000000000000000,0.00002898430000000000
48.00000000000000000000,0.00003061490000000000
48.00000000000000000000,0.00002901890000000000
48.00000000000000000000,0.00002738260000000000
48.00000000000000000000,0.00002829980000000000
48.00000000000000000000,0.00002850480000000000
48.00000000000000000000,0.00002384540000000000
48.00000000000000000000,0.00001166190000000000
48.00000000000000000000,-0.00000339034000000000
48.00000000000000000000,-0.00001142080000000000
48.00000000000000000000,-0.00001310520000000000
48.00000000000000000000,-0.00001634680000000000
48.00000000000000000000,-0.00002373540000000000
48.00000000000000000000,-0.00003378950000000000
48.00000000000000000000,-0.00004809230000000000
48.00000000000000000000,-0.00006646169999999999
49.00000000000000000000,-0.00008386520000000000
49.00000000000000000000,-0.00009230520000000001
49.00000000000000000000,-0.00008563290000000000
49.00000000000000000000,-0.00005991230000000000
49.00000000000000000000,-0.00001445400000000000
49.00000000000000000000,0.00004759550000000000
49.00000000000000000000,0.00012156599999999999
49.00000000000000000000,0.00019509599999999999
49.00000000000000000000,0.00025035699999999999
49.00000000000000000000,0.00027461000000000000
49.00000000000000000000,0.00026153899999999998
49.00000000000000000000,0.00021447299999999999
49.00000000000000000000,0.00014549600000000000
49.00000000000000000000,0.00007165110000000000
49.00000000000000000000,0.00001519710000000000
49.00000000000000000000,-0.00001348980000000000
49.00000000000000000000,-0.00001942440000000000
49.00000000000000000000,-0.00001270910000000000
49.00000000000000000000,-0.00000282421000000000
49.00000000000000000000,0.00000587031000000000
50.00000000000000000000,0.00001555940000000000
50.00000000000000000000,0.00003239120000000000
50.00000000000000000000,0.00006015420000000000
50.00000000000000000000,0.00009413730000000000
50.00000000000000000000,0.00012522400000000001
50.00000000000000000000,0.00015023099999999999
50.00000000000000000000,0.00016998900000000000
50.00000000000000000000,0.00018234200000000000
50.00000000000000000000,0.00018155400000000000
50.00000000000000000000,0.00016508300000000000
50.00000000000000000000,0.00013946700000000000
50.00000000000000000000,0.00011221800000000000
50.00000000000000000000,0.00008208550000000001
50.00000000000000000000,0.00004966380000000000
50.00000000000000000000,0.00002330760000000000
50.00000000000000000000,0.00000666711000000000
50.00000000000000000000,-0.00000533674000000000
50.00000000000000000000,-0.00001845540000000000
50.00000000000000000000,-0.00002813920000000000
50.00000000000000000000,-0.00002357380000000000
51.00000000000000000000,-0.00000508604000000000
51.00000000000000000000,0.00001630020000000000
51.00000000000000000000,0.00003556560000000000
51.00000000000000000000,0.00005198170000000000
51.00000000000000000000,0.00006029660000000000
51.00000000000000000000,0.00005766840000000000
51.00000000000000000000,0.00004355500000000000
51.00000000000000000000,0.00002222840000000000
51.00000000000000000000,0.00000375502000000000
51.00000000000000000000,-0.00000363116000000000
51.00000000000000000000,0.00000108463000000000
51.00000000000000000000,0.00001279380000000000
51.00000000000000000000,0.00002565930000000000
51.00000000000000000000,0.00003830870000000000
51.00000000000000000000,0.00004964780000000000
51.00000000000000000000,0.00005381080000000000
51.00000000000000000000,0.00004857880000000000
51.00000000000000000000,0.00003757700000000000
51.00000000000000000000,0.00002370490000000000
51.00000000000000000000,0.00000848774000000000
52.00000000000000000000,-0.00000524248000000000
52.00000000000000000000,-0.00001778560000000000
52.00000000000000000000,-0.00003350150000000000
52.00000000000000000000,-0.00004586500000000000
52.00000000000000000000,-0.00004711020000000000
52.00000000000000000000,-0.00004623290000000000
52.00000000000000000000,-0.00004860380000000000
52.00000000000000000000,-0.00005430150000000000
52.00000000000000000000,-0.00005776780000000000
52.00000000000000000000,-0.00005157020000000000
52.00000000000000000000,-0.00004201550000000000
52.00000000000000000000,-0.00003204340000000000
52.00000000000000000000,-0.00001343360000000000
52.00000000000000000000,0.00001975740000000000
52.00000000000000000000,0.00006721560000000000
52.00000000000000000000,0.00012150999999999999
52.00000000000000000000,0.00016873499999999999
52.00000000000000000000,0.00019543499999999999
52.00000000000000000000,0.00019510000000000000
52.00000000000000000000,0.00017294500000000001
53.00000000000000000000,0.00014150999999999999
53.00000000000000000000,0.00011171700000000000
53.00000000000000000000,0.00008728310000000000
53.00000000000000000000,0.00006649060000000000
53.00000000000000000000,0.00004735090000000000
53.00000000000000000000,0.00003017830000000000
53.00000000000000000000,0.00001928900000000000
53.00000000000000000000,0.00001554950000000000
53.00000000000000000000,0.00001293080000000000
53.00000000000000000000,0.00001054520000000000
53.00000000000000000000,0.00001345770000000000
53.00000000000000000000,0.00002059780000000000
53.00000000000000000000,0.00002308780000000000
53.00000000000000000000,0.00002012990000000000
53.00000000000000000000,0.00001576080000000000
53.00000000000000000000,0.00001100600000000000
53.00000000000000000000,0.00000655509000000000
53.00000000000000000000,0.00000151096000000000
53.00000000000000000000,-0.00000385583000000000
53.00000000000000000000,-0.00001043310000000000
54.00000000000000000000,-0.00001893460000000000
54.00000000000000000000,-0.00002707060000000000
54.00000000000000000000,-0.00003281160000000000
54.00000000000000000000,-0.00004041700000000000
54.00000000000000000000,-0.00005218530000000000
54.00000000000000000000,-0.00005934200000000000
54.00000000000000000000,-0.00005378820000000000
54.00000000000000000000,-0.00003888180000000000
54.00000000000000000000,-0.00002094730000000000
54.00000000000000000000,-0.00000022169100000000
54.00000000000000000000,0.00002567000000000000
54.00000000000000000000,0.00005684050000000000
54.00000000000000000000,0.00009177660000000000
54.00000000000000000000,0.00013112700000000001
54.00000000000000000000,0.00017558299999999999
54.00000000000000000000,0.00021596500000000001
54.00000000000000000000,0.00023548400000000000
54.00000000000000000000,0.00023115899999999999
54.00000000000000000000,0.00021119699999999999
54.00000000000000000000,0.00018054900000000001
55.00000000000000000000,0.00014098299999999999
55.00000000000000000000,0.00009617530000000000
55.00000000000000000000,0.00005360800000000000
55.00000000000000000000,0.00001998120000000000
55.00000000000000000000,-0.00000120534000000000
55.00000000000000000000,-0.00001025120000000000
55.00000000000000000000,-0.00000626866000000000
55.00000000000000000000,0.00001228500000000000
55.00000000000000000000,0.00004145860000000000
55.00000000000000000000,0.00007387180000000000
55.00000000000000000000,0.00010541100000000000
55.00000000000000000000,0.00012981900000000001
55.00000000000000000000,0.00014081500000000000
55.00000000000000000000,0.00013786399999999999
55.00000000000000000000,0.00012398300000000001
55.00000000000000000000,0.00010336000000000000
55.00000000000000000000,0.00007967629999999999
55.00000000000000000000,0.00005676190000000000
55.00000000000000000000,0.00003875090000000000
55.00000000000000000000,0.00002749720000000000
56.00000000000000000000,0.00001590230000000000
56.00000000000000000000,0.00000020754900000000
56.00000000000000000000,-0.00001218820000000000
56.00000000000000000000,-0.00002075440000000000
56.00000000000000000000,-0.00003147690000000000
56.00000000000000000000,-0.00004494680000000000
56.00000000000000000000,-0.00005766110000000000
56.00000000000000000000,-0.00006521810000000000
56.00000000000000000000,-0.00006873450000000000
56.00000000000000000000,-0.00007129230000000000
56.00000000000000000000,-0.00007548700000000000
56.00000000000000000000,-0.00007834020000000000
56.00000000000000000000,-0.00007544390000000000
56.00000000000000000000,-0.00006739240000000000
56.00000000000000000000,-0.00005611000000000000
56.00000000000000000000,-0.00004102210000000000
56.00000000000000000000,-0.00001855930000000000
56.00000000000000000000,0.00001216480000000000
56.00000000000000000000,0.00004951280000000000
56.00000000000000000000,0.00008784560000000000
57.00000000000000000000,0.00011803000000000001
57.00000000000000000000,0.00013006899999999999
57.00000000000000000000,0.00012193900000000000
57.00000000000000000000,0.00010180500000000001
57.00000000000000000000,0.00008131980000000000
57.00000000000000000000,0.00006726040000000000
57.00000000000000000000,0.00006176530000000000
57.00000000000000000000,0.00006666890000000000
57.00000000000000000000,0.00008021580000000001
57.00000000000000000000,0.00009399110000000000
57.00000000000000000000,0.00009971140000000000
57.00000000000000000000,0.00009622390000000000
57.00000000000000000000,0.00008847810000000000
57.00000000000000000000,0.00008348039999999999
57.00000000000000000000,0.00007970999999999999
57.00000000000000000000,0.00007440160000000000
57.00000000000000000000,0.00007098460000000000
57.00000000000000000000,0.00006940720000000000
57.00000000000000000000,0.00006548469999999999
57.00000000000000000000,0.00005741590000000000
58.00000000000000000000,0.00004822400000000000
58.00000000000000000000,0.00003873790000000000
58.00000000000000000000,0.00002709090000000000
58.00000000000000000000,0.00001400950000000000
58.00000000000000000000,0.00000470034000000000
58.00000000000000000000,0.00000271212000000000
58.00000000000000000000,0.00000657538000000000
58.00000000000000000000,0.00001394140000000000
58.00000000000000000000,0.00002248710000000000
58.00000000000000000000,0.00002981680000000000
58.00000000000000000000,0.00003395820000000000
58.00000000000000000000,0.00003508250000000000
58.00000000000000000000,0.00003422270000000000
58.00000000000000000000,0.00003108090000000000
58.00000000000000000000,0.00002185850000000000
58.00000000000000000000,0.00000851008000000000
58.00000000000000000000,-0.00000055888900000000
58.00000000000000000000,-0.00000242504000000000
58.00000000000000000000,0.00000084203400000000
58.00000000000000000000,0.00000597672000000000
59.00000000000000000000,0.00001098420000000000
59.00000000000000000000,0.00001958050000000000
59.00000000000000000000,0.00003330760000000000
59.00000000000000000000,0.00004851300000000000
59.00000000000000000000,0.00006042630000000000
59.00000000000000000000,0.00006538390000000000
59.00000000000000000000,0.00006389180000000000
59.00000000000000000000,0.00005846350000000000
59.00000000000000000000,0.00004983360000000000
59.00000000000000000000,0.00003975470000000000
59.00000000000000000000,0.00003048430000000000
59.00000000000000000000,0.00001817330000000000
59.00000000000000000000,0.00000158409000000000
59.00000000000000000000,-0.00001443590000000000
59.00000000000000000000,-0.00002381350000000000
59.00000000000000000000,-0.00002716950000000000
59.00000000000000000000,-0.00003009180000000000
59.00000000000000000000,-0.00003256450000000000
59.00000000000000000000,-0.00002845900000000000
59.00000000000000000000,-0.00001746460000000000
60.00000000000000000000,-0.00000564564000000000
60.00000000000000000000,0.00000622148000000000
60.00000000000000000000,0.00001871890000000000
60.00000000000000000000,0.00002951780000000000
60.00000000000000000000,0.00004127680000000000
60.00000000000000000000,0.00005951630000000000
60.00000000000000000000,0.00008736390000000001
60.00000000000000000000,0.00012168800000000000
60.00000000000000000000,0.00015025200000000000
60.00000000000000000000,0.00016697600000000000
60.00000000000000000000,0.00016846299999999999
60.00000000000000000000,0.00015265000000000000
60.00000000000000000000,0.00012765199999999999
60.00000000000000000000,0.00010266200000000000
60.00000000000000000000,0.00008290400000000000
60.00000000000000000000,0.00007285840000000000
60.00000000000000000000,0.00007412190000000000
60.00000000000000000000,0.00008021590000000000
60.00000000000000000000,0.00008337360000000000
60.00000000000000000000,0.00008266840000000000
61.00000000000000000000,0.00008017250000000000
61.00000000000000000000,0.00007634480000000000
61.00000000000000000000,0.00007168830000000000
61.00000000000000000000,0.00006845270000000000
61.00000000000000000000,0.00006736300000000000
61.00000000000000000000,0.00006666950000000000
61.00000000000000000000,0.00006459330000000000
61.00000000000000000000,0.00005863340000000000
61.00000000000000000000,0.00004442400000000000
61.00000000000000000000,0.00002060380000000000
61.00000000000000000000,-0.00000766388000000000
61.00000000000000000000,-0.00002810480000000000
61.00000000000000000000,-0.00003189320000000000
61.00000000000000000000,-0.00002486360000000000
61.00000000000000000000,-0.00001701650000000000
61.00000000000000000000,-0.00001181680000000000
61.00000000000000000000,-0.00001197710000000000
61.00000000000000000000,-0.00002086540000000000
61.00000000000000000000,-0.00003232080000000000
61.00000000000000000000,-0.00003361770000000000
62.00000000000000000000,-0.00001818700000000000
62.00000000000000000000,0.00001036380000000000
62.00000000000000000000,0.00004937780000000000
62.00000000000000000000,0.00009423900000000000
62.00000000000000000000,0.00013226500000000001
62.00000000000000000000,0.00015062100000000001
62.00000000000000000000,0.00014716700000000000
62.00000000000000000000,0.00012723899999999999
62.00000000000000000000,0.00009662230000000000
62.00000000000000000000,0.00006555490000000000
62.00000000000000000000,0.00003930830000000000
62.00000000000000000000,0.00001081620000000000
62.00000000000000000000,-0.00002672740000000000
62.00000000000000000000,-0.00006846550000000000
62.00000000000000000000,-0.00010354299999999999
62.00000000000000000000,-0.00012506000000000000
62.00000000000000000000,-0.00012808200000000001
62.00000000000000000000,-0.00010830500000000000
62.00000000000000000000,-0.00007398410000000000
62.00000000000000000000,-0.00003261690000000000
63.00000000000000000000,0.00001532940000000000
63.00000000000000000000,0.00005680950000000000
63.00000000000000000000,0.00008293860000000000
63.00000000000000000000,0.00009462910000000000
63.00000000000000000000,0.00009392690000000000
63.00000000000000000000,0.00009052200000000000
63.00000000000000000000,0.00008844060000000000
63.00000000000000000000,0.00008960460000000001
63.00000000000000000000,0.00009952559999999999
63.00000000000000000000,0.00011812500000000000
63.00000000000000000000,0.00013622700000000000
63.00000000000000000000,0.00014621500000000000
63.00000000000000000000,0.00014809700000000000
63.00000000000000000000,0.00014435300000000001
63.00000000000000000000,0.00013723100000000000
63.00000000000000000000,0.00012808000000000001
63.00000000000000000000,0.00011918300000000000
63.00000000000000000000,0.00011114600000000000
63.00000000000000000000,0.00010087800000000001
63.00000000000000000000,0.00008617970000000000
64.00000000000000000000,0.00006886569999999999
64.00000000000000000000,0.00005040160000000000
64.00000000000000000000,0.00003194540000000000
64.00000000000000000000,0.00001757040000000000
64.00000000000000000000,0.00001048850000000000
64.00000000000000000000,0.00000773428000000000
64.00000000000000000000,0.00000918557000000000
64.00000000000000000000,0.00001286440000000000
64.00000000000000000000,0.00001410860000000000
64.00000000000000000000,0.00001266550000000000
64.00000000000000000000,0.00000913097000000000
64.00000000000000000000,0.00000550842000000000
64.00000000000000000000,0.00000510452000000000
64.00000000000000000000,0.00000471005000000000
64.00000000000000000000,0.00000005171660000000
64.00000000000000000000,-0.00000619098000000000
64.00000000000000000000,-0.00001163540000000000
64.00000000000000000000,-0.00001675250000000000
64.00000000000000000000,-0.00002177710000000000
64.00000000000000000000,-0.00002649590000000000
65.00000000000000000000,-0.00002855610000000000
65.00000000000000000000,-0.00002249720000000000
65.00000000000000000000,-0.00000775866000000000
65.00000000000000000000,0.00001041740000000000
65.00000000000000000000,0.00002586140000000000
65.00000000000000000000,0.00003525470000000000
65.00000000000000000000,0.00003685880000000000
65.00000000000000000000,0.00003099020000000000
65.00000000000000000000,0.00002192870000000000
65.00000000000000000000,0.00001331670000000000
65.00000000000000000000,0.00000517807000000000
65.00000000000000000000,-0.00000148635000000000
65.00000000000000000000,-0.00000384540000000000
65.00000000000000000000,0.00000040742200000000
65.00000000000000000000,0.00001181480000000000
65.00000000000000000000,0.00002760240000000000
65.00000000000000000000,0.00004231350000000000
65.00000000000000000000,0.00005083340000000000
65.00000000000000000000,0.00005415020000000000
65.00000000000000000000,0.00005079640000000000
66.00000000000000000000,0.00003204840000000000
66.00000000000000000000,0.00000039119800000000
66.00000000000000000000,-0.00002508660000000000
66.00000000000000000000,-0.00003356110000000000
66.00000000000000000000,-0.00003435700000000000
66.00000000000000000000,-0.00003407230000000000
66.00000000000000000000,-0.00002764450000000000
66.00000000000000000000,-0.00001376390000000000
66.00000000000000000000,0.00000213535000000000
66.00000000000000000000,0.00001789180000000000
66.00000000000000000000,0.00003718700000000000
66.00000000000000000000,0.00006711490000000000
66.00000000000000000000,0.00011328300000000001
66.00000000000000000000,0.00017280000000000000
66.00000000000000000000,0.00023060900000000000
66.00000000000000000000,0.00026886800000000001
66.00000000000000000000,0.00028139000000000001
66.00000000000000000000,0.00027050899999999999
66.00000000000000000000,0.00024066699999999999
66.00000000000000000000,0.00019793100000000001
67.00000000000000000000,0.00014950400000000001
67.00000000000000000000,0.00010435400000000000
67.00000000000000000000,0.00007070410000000000
67.00000000000000000000,0.00004810160000000000
67.00000000000000000000,0.00003405750000000000
67.00000000000000000000,0.00002650460000000000
67.00000000000000000000,0.00002250370000000000
67.00000000000000000000,0.00002079860000000000
67.00000000000000000000,0.00001627420000000000
67.00000000000000000000,0.00000923247000000000
67.00000000000000000000,0.00000491742000000000
67.00000000000000000000,0.00000350239000000000
67.00000000000000000000,0.00000260943000000000
67.00000000000000000000,0.00000358207000000000
67.00000000000000000000,0.00000877526000000000
67.00000000000000000000,0.00001430090000000000
67.00000000000000000000,0.00001570750000000000
67.00000000000000000000,0.00001495210000000000
67.00000000000000000000,0.00001549520000000000
67.00000000000000000000,0.00001693380000000000
68.00000000000000000000,0.00001687360000000000
68.00000000000000000000,0.00001493250000000000
68.00000000000000000000,0.00001116140000000000
68.00000000000000000000,0.00000508399000000000
68.00000000000000000000,0.00000150677000000000
68.00000000000000000000,0.00000327289000000000
68.00000000000000000000,0.00000491039000000000
68.00000000000000000000,0.00000011098300000000
68.00000000000000000000,-0.00001728830000000000
68.00000000000000000000,-0.00004555620000000000
68.00000000000000000000,-0.00007246300000000000
68.00000000000000000000,-0.00009045090000000000
68.00000000000000000000,-0.00009673630000000000
68.00000000000000000000,-0.00009466190000000000
68.00000000000000000000,-0.00008780460000000000
68.00000000000000000000,-0.00007233340000000000
68.00000000000000000000,-0.00004462980000000000
68.00000000000000000000,-0.00000682609000000000
68.00000000000000000000,0.00003660300000000000
68.00000000000000000000,0.00008277940000000000
69.00000000000000000000,0.00012894100000000001
69.00000000000000000000,0.00017243799999999999
69.00000000000000000000,0.00020603099999999999
69.00000000000000000000,0.00022244300000000001
69.00000000000000000000,0.00022162700000000001
69.00000000000000000000,0.00021117000000000000
69.00000000000000000000,0.00019597500000000001
69.00000000000000000000,0.00017515099999999999
69.00000000000000000000,0.00015023500000000000
69.00000000000000000000,0.00012471400000000000
69.00000000000000000000,0.00009995770000000000
69.00000000000000000000,0.00008001170000000000
69.00000000000000000000,0.00006774800000000000
69.00000000000000000000,0.00005804740000000000
69.00000000000000000000,0.00004455650000000000
69.00000000000000000000,0.00002939330000000000
69.00000000000000000000,0.00001967520000000000
69.00000000000000000000,0.00001438430000000000
69.00000000000000000000,0.00001240300000000000
69.00000000000000000000,0.00001181150000000000
70.00000000000000000000,0.00001125080000000000
70.00000000000000000000,0.00001036520000000000
70.00000000000000000000,0.00000857696000000000
70.00000000000000000000,0.00000762781000000000
70.00000000000000000000,0.00000644231000000000
70.00000000000000000000,0.00000681220000000000
70.00000000000000000000,0.00000942473000000000
70.00000000000000000000,0.00001259170000000000
70.00000000000000000000,0.00001449380000000000
70.00000000000000000000,0.00001386190000000000
70.00000000000000000000,0.00001122020000000000
70.00000000000000000000,0.00001168090000000000
70.00000000000000000000,0.00001642840000000000
70.00000000000000000000,0.00002000090000000000
70.00000000000000000000,0.00002004630000000000
70.00000000000000000000,0.00001696950000000000
70.00000000000000000000,0.00001372660000000000
70.00000000000000000000,0.00001542240000000000
70.00000000000000000000,0.00002014400000000000
70.00000000000000000000,0.00002123530000000000
71.00000000000000000000,0.00002083870000000000
71.00000000000000000000,0.00002009120000000000
71.00000000000000000000,0.00001834110000000000
71.00000000000000000000,0.00001858950000000000
71.00000000000000000000,0.00002339360000000000
71.00000000000000000000,0.00002962600000000000
71.00000000000000000000,0.00003145260000000000
71.00000000000000000000,0.00002492930000000000
71.00000000000000000000,0.00001178490000000000
71.00000000000000000000,-0.00000014245400000000
71.00000000000000000000,-0.00000998147000000000
71.00000000000000000000,-0.00002436150000000000
71.00000000000000000000,-0.00004673690000000000
71.00000000000000000000,-0.00006736920000000000
71.00000000000000000000,-0.00007365540000000000
71.00000000000000000000,-0.00006364370000000000
71.00000000000000000000,-0.00004444030000000000
71.00000000000000000000,-0.00002208650000000000
71.00000000000000000000,0.00000390995000000000
71.00000000000000000000,0.00003513280000000000
72.00000000000000000000,0.00006795830000000000
72.00000000000000000000,0.00009670850000000000
72.00000000000000000000,0.00012156300000000000
72.00000000000000000000,0.00014138200000000001
72.00000000000000000000,0.00015054300000000000
72.00000000000000000000,0.00014818500000000001
72.00000000000000000000,0.00013657299999999999
72.00000000000000000000,0.00011975600000000000
72.00000000000000000000,0.00010431300000000000
72.00000000000000000000,0.00009375160000000001
72.00000000000000000000,0.00009128989999999999
72.00000000000000000000,0.00009333620000000000
72.00000000000000000000,0.00009702199999999999
72.00000000000000000000,0.00010135800000000000
72.00000000000000000000,0.00010180800000000000
72.00000000000000000000,0.00009597779999999999
72.00000000000000000000,0.00008617600000000000
72.00000000000000000000,0.00007905660000000000
72.00000000000000000000,0.00007769660000000000
72.00000000000000000000,0.00007919490000000000
73.00000000000000000000,0.00007609160000000000
73.00000000000000000000,0.00006676900000000000
73.00000000000000000000,0.00005619110000000000
73.00000000000000000000,0.00004981900000000000
73.00000000000000000000,0.00004604770000000000
73.00000000000000000000,0.00004049800000000000
73.00000000000000000000,0.00003461380000000000
73.00000000000000000000,0.00003159600000000000
73.00000000000000000000,0.00002856080000000000
73.00000000000000000000,0.00002253270000000000
73.00000000000000000000,0.00001601540000000000
73.00000000000000000000,0.00001155870000000000
73.00000000000000000000,0.00000761480000000000
73.00000000000000000000,-0.00000015049700000000
73.00000000000000000000,-0.00000943031000000000
73.00000000000000000000,-0.00001405860000000000
73.00000000000000000000,-0.00001546090000000000
73.00000000000000000000,-0.00001729430000000000
73.00000000000000000000,-0.00001951500000000000
73.00000000000000000000,-0.00003000400000000000
74.00000000000000000000,-0.00005244920000000000
74.00000000000000000000,-0.00007881770000000000
74.00000000000000000000,-0.00010105400000000000
74.00000000000000000000,-0.00010898600000000000
74.00000000000000000000,-0.00009384890000000000
74.00000000000000000000,-0.00006082760000000000
74.00000000000000000000,-0.00002785580000000000
74.00000000000000000000,-0.00000815914000000000
74.00000000000000000000,0.00000189228000000000
74.00000000000000000000,0.00001293690000000000
74.00000000000000000000,0.00002983170000000000
74.00000000000000000000,0.00005296430000000000
74.00000000000000000000,0.00008570280000000000
74.00000000000000000000,0.00013354700000000000
74.00000000000000000000,0.00019414500000000001
74.00000000000000000000,0.00025248000000000002
74.00000000000000000000,0.00028890600000000002
74.00000000000000000000,0.00029336400000000001
74.00000000000000000000,0.00026797099999999999
74.00000000000000000000,0.00022368700000000000
75.00000000000000000000,0.00017476100000000000
75.00000000000000000000,0.00013256300000000001
75.00000000000000000000,0.00009691890000000000
75.00000000000000000000,0.00005644680000000000
75.00000000000000000000,0.00001566900000000000
75.00000000000000000000,-0.00001358590000000000
75.00000000000000000000,-0.00003033310000000000
75.00000000000000000000,-0.00003564390000000000
75.00000000000000000000,-0.00003181060000000000
75.00000000000000000000,-0.00002185100000000000
75.00000000000000000000,-0.00000351261000000000
75.00000000000000000000,0.00002445640000000000
75.00000000000000000000,0.00005376310000000000
75.00000000000000000000,0.00007831640000000000
75.00000000000000000000,0.00009216870000000000
75.00000000000000000000,0.00009304970000000000
75.00000000000000000000,0.00008485480000000000
75.00000000000000000000,0.00007188249999999999
75.00000000000000000000,0.00005465280000000000
75.00000000000000000000,0.00003650220000000000
76.00000000000000000000,0.00002450230000000000
76.00000000000000000000,0.00001901860000000000
76.00000000000000000000,0.00001376700000000000
76.00000000000000000000,0.00000631116000000000
76.00000000000000000000,0.00000077105400000000
76.00000000000000000000,-0.00000471234000000000
76.00000000000000000000,-0.00001438900000000000
76.00000000000000000000,-0.00002537000000000000
76.00000000000000000000,-0.00003297250000000000
76.00000000000000000000,-0.00003325400000000000
76.00000000000000000000,-0.00002399760000000000
76.00000000000000000000,-0.00001532340000000000
76.00000000000000000000,-0.00001411510000000000
76.00000000000000000000,-0.00001993400000000000
76.00000000000000000000,-0.00002923830000000000
76.00000000000000000000,-0.00003812840000000000
76.00000000000000000000,-0.00004536930000000000
76.00000000000000000000,-0.00004372810000000000
76.00000000000000000000,-0.00002871030000000000
76.00000000000000000000,-0.00000645303000000000
77.00000000000000000000,0.00000948709000000000
77.00000000000000000000,0.00001105170000000000
77.00000000000000000000,0.00000784087000000000
77.00000000000000000000,0.00001290820000000000
77.00000000000000000000,0.00002657570000000000
77.00000000000000000000,0.00004006170000000000
77.00000000000000000000,0.00004877870000000000
77.00000000000000000000,0.00005397660000000000
77.00000000000000000000,0.00005756270000000000
77.00000000000000000000,0.00006444390000000000
77.00000000000000000000,0.00007767540000000001
77.00000000000000000000,0.00009467319999999999
77.00000000000000000000,0.00011363300000000000
77.00000000000000000000,0.00013292600000000001
77.00000000000000000000,0.00014800800000000001
77.00000000000000000000,0.00015686000000000001
77.00000000000000000000,0.00015940700000000000
77.00000000000000000000,0.00015304899999999999
77.00000000000000000000,0.00013846500000000000
77.00000000000000000000,0.00011716000000000000
78.00000000000000000000,0.00008733000000000001
78.00000000000000000000,0.00005355600000000000
78.00000000000000000000,0.00002438290000000000
78.00000000000000000000,0.00000628483000000000
78.00000000000000000000,-0.00000142340000000000
78.00000000000000000000,-0.00000355264000000000
78.00000000000000000000,-0.00000318002000000000
78.00000000000000000000,0.00000124752000000000
78.00000000000000000000,0.00001345790000000000
78.00000000000000000000,0.00003243620000000000
78.00000000000000000000,0.00005212480000000000
78.00000000000000000000,0.00006434110000000001
78.00000000000000000000,0.00006519159999999999
78.00000000000000000000,0.00005892390000000000
78.00000000000000000000,0.00005329680000000000
78.00000000000000000000,0.00005045120000000000
78.00000000000000000000,0.00004839560000000000
78.00000000000000000000,0.00004672830000000000
78.00000000000000000000,0.00004552860000000000
78.00000000000000000000,0.00004394740000000000
79.00000000000000000000,0.00004475150000000000
79.00000000000000000000,0.00004840300000000000
79.00000000000000000000,0.00004794570000000000
79.00000000000000000000,0.00004164230000000000
79.00000000000000000000,0.00003548600000000000
79.00000000000000000000,0.00003374630000000000
79.00000000000000000000,0.00003345480000000000
79.00000000000000000000,0.00003009580000000000
79.00000000000000000000,0.00002315880000000000
79.00000000000000000000,0.00001073190000000000
79.00000000000000000000,-0.00000566557000000000
79.00000000000000000000,-0.00001901790000000000
79.00000000000000000000,-0.00002812090000000000
79.00000000000000000000,-0.00003716240000000000
79.00000000000000000000,-0.00004955620000000000
79.00000000000000000000,-0.00006533330000000000
79.00000000000000000000,-0.00007980960000000000
79.00000000000000000000,-0.00008945530000000000
79.00000000000000000000,-0.00009220400000000000
79.00000000000000000000,-0.00008285269999999999
80.00000000000000000000,-0.00005574030000000000
80.00000000000000000000,-0.00001348880000000000
80.00000000000000000000,0.00003240560000000000
80.00000000000000000000,0.00007050230000000000
80.00000000000000000000,0.00009590430000000000
80.00000000000000000000,0.00011108100000000000
80.00000000000000000000,0.00012272499999999999
80.00000000000000000000,0.00013532000000000000
80.00000000000000000000,0.00014568799999999999
80.00000000000000000000,0.00014932300000000001
80.00000000000000000000,0.00014449900000000000
80.00000000000000000000,0.00012783000000000000
80.00000000000000000000,0.00009975760000000000
80.00000000000000000000,0.00007298650000000000
80.00000000000000000000,0.00005967610000000000
80.00000000000000000000,0.00006126050000000000
80.00000000000000000000,0.00007418109999999999
80.00000000000000000000,0.00009098580000000000
80.00000000000000000000,0.00010219300000000000
80.00000000000000000000,0.00010146400000000000
81.00000000000000000000,0.00008965350000000000
81.00000000000000000000,0.00007104940000000000
81.00000000000000000000,0.00004763320000000000
81.00000000000000000000,0.00002619560000000000
81.00000000000000000000,0.00001689040000000000
81.00000000000000000000,0.00002353120000000000
81.00000000000000000000,0.00003900890000000000
81.00000000000000000000,0.00004967620000000000
81.00000000000000000000,0.00004771700000000000
81.00000000000000000000,0.00003582530000000000
81.00000000000000000000,0.00002135190000000000
81.00000000000000000000,0.00000986573000000000
81.00000000000000000000,0.00000639146000000000
81.00000000000000000000,0.00001479290000000000
81.00000000000000000000,0.00003131850000000000
81.00000000000000000000,0.00004533840000000000
81.00000000000000000000,0.00005082910000000000
81.00000000000000000000,0.00004806400000000000
81.00000000000000000000,0.00003472520000000000
81.00000000000000000000,0.00000722059000000000
82.00000000000000000000,-0.00002642390000000000
82.00000000000000000000,-0.00004581750000000000
82.00000000000000000000,-0.00004379730000000000
82.00000000000000000000,-0.00003108340000000000
82.00000000000000000000,-0.00001316860000000000
82.00000000000000000000,0.00001269190000000000
82.00000000000000000000,0.00004635230000000000
82.00000000000000000000,0.00008102870000000001
82.00000000000000000000,0.00010831600000000000
82.00000000000000000000,0.00012504300000000000
82.00000000000000000000,0.00013482600000000000
82.00000000000000000000,0.00013998999999999999
82.00000000000000000000,0.00013867500000000000
82.00000000000000000000,0.00012984499999999999
82.00000000000000000000,0.00011618200000000001
82.00000000000000000000,0.00009999630000000000
82.00000000000000000000,0.00008157230000000001
82.00000000000000000000,0.00006115360000000000
82.00000000000000000000,0.00003936150000000000
82.00000000000000000000,0.00001705670000000000
83.00000000000000000000,-0.00000407557000000000
83.00000000000000000000,-0.00002501670000000000
83.00000000000000000000,-0.00004936070000000000
83.00000000000000000000,-0.00007134880000000000
83.00000000000000000000,-0.00008634140000000001
83.00000000000000000000,-0.00009612130000000000
83.00000000000000000000,-0.00009809770000000000
83.00000000000000000000,-0.00008651140000000000
83.00000000000000000000,-0.00006209280000000000
83.00000000000000000000,-0.00003356070000000000
83.00000000000000000000,-0.00000511692000000000
83.00000000000000000000,0.00002696750000000000
83.00000000000000000000,0.00006887980000000000
83.00000000000000000000,0.00011538100000000000
83.00000000000000000000,0.00015194199999999999
83.00000000000000000000,0.00017112900000000001
83.00000000000000000000,0.00017482899999999999
83.00000000000000000000,0.00016566100000000000
83.00000000000000000000,0.00014535899999999999
83.00000000000000000000,0.00012067200000000000
84.00000000000000000000,0.00009838000000000000
84.00000000000000000000,0.00008094610000000000
84.00000000000000000000,0.00006711029999999999
84.00000000000000000000,0.00005407960000000000
84.00000000000000000000,0.00004166510000000000
84.00000000000000000000,0.00003147740000000000
84.00000000000000000000,0.00002280060000000000
84.00000000000000000000,0.00001471990000000000
84.00000000000000000000,0.00000916480000000000
84.00000000000000000000,0.00000762621000000000
84.00000000000000000000,0.00000606940000000000
84.00000000000000000000,-0.00000008726580000000
84.00000000000000000000,-0.00000458757000000000
84.00000000000000000000,0.00000110729000000000
84.00000000000000000000,0.00001271650000000000
84.00000000000000000000,0.00002339980000000000
84.00000000000000000000,0.00003302490000000000
84.00000000000000000000,0.00004008580000000000
84.00000000000000000000,0.00004147770000000000
84.00000000000000000000,0.00003869330000000000
85.00000000000000000000,0.00003447110000000000
85.00000000000000000000,0.00002969150000000000
85.00000000000000000000,0.00002480370000000000
85.00000000000000000000,0.00002192860000000000
85.00000000000000000000,0.00002155480000000000
85.00000000000000000000,0.00001883170000000000
85.00000000000000000000,0.00000981928000000000
85.00000000000000000000,0.00000123082000000000
85.00000000000000000000,-0.00000000604308000000
85.00000000000000000000,0.00000279023000000000
85.00000000000000000000,0.00000613453000000000
85.00000000000000000000,0.00001247320000000000
85.00000000000000000000,0.00002395930000000000
85.00000000000000000000,0.00003926680000000000
85.00000000000000000000,0.00005999940000000000
85.00000000000000000000,0.00008396210000000000
85.00000000000000000000,0.00010223800000000001
85.00000000000000000000,0.00010814800000000000
85.00000000000000000000,0.00010363800000000000
85.00000000000000000000,0.00009327760000000000
86.00000000000000000000,0.00007717330000000000
86.00000000000000000000,0.00006092220000000000
86.00000000000000000000,0.00005111210000000000
86.00000000000000000000,0.00004955580000000000
86.00000000000000000000,0.00005415280000000000
86.00000000000000000000,0.00005608480000000000
86.00000000000000000000,0.00004908830000000000
86.00000000000000000000,0.00003617150000000000
86.00000000000000000000,0.00002576740000000000
86.00000000000000000000,0.00002130490000000000
86.00000000000000000000,0.00002099230000000000
86.00000000000000000000,0.00001720960000000000
86.00000000000000000000,0.00000561892000000000
86.00000000000000000000,-0.00000723522000000000
86.00000000000000000000,-0.00001567420000000000
86.00000000000000000000,-0.00002123540000000000
86.00000000000000000000,-0.00002420230000000000
86.00000000000000000000,-0.00002292230000000000
86.00000000000000000000,-0.00001829230000000000
86.00000000000000000000,-0.00001190540000000000
87.00000000000000000000,-0.00000528881000000000
87.00000000000000000000,0.00000252402000000000
87.00000000000000000000,0.00001101840000000000
87.00000000000000000000,0.00001363850000000000
87.00000000000000000000,0.00001013460000000000
87.00000000000000000000,0.00001574810000000000
87.00000000000000000000,0.00004459500000000000
87.00000000000000000000,0.00009184040000000000
87.00000000000000000000,0.00014110100000000000
87.00000000000000000000,0.00018063899999999999
87.00000000000000000000,0.00020253400000000001
87.00000000000000000000,0.00020531100000000001
87.00000000000000000000,0.00019193800000000000
87.00000000000000000000,0.00016917500000000001
87.00000000000000000000,0.00014144599999999999
87.00000000000000000000,0.00010752299999999999
87.00000000000000000000,0.00006856140000000000
87.00000000000000000000,0.00003219200000000000
87.00000000000000000000,0.00000743009000000000
87.00000000000000000000,-0.00000461938000000000
88.00000000000000000000,-0.00000912220000000000
88.00000000000000000000,-0.00000809717000000000
88.00000000000000000000,-0.00000029989500000000
88.00000000000000000000,0.00001109140000000000
88.00000000000000000000,0.00001960980000000000
88.00000000000000000000,0.00002197270000000000
88.00000000000000000000,0.00002118770000000000
88.00000000000000000000,0.00002021170000000000
88.00000000000000000000,0.00001501110000000000
88.00000000000000000000,-0.00000127685000000000
88.00000000000000000000,-0.00002756980000000000
88.00000000000000000000,-0.00005190960000000000
88.00000000000000000000,-0.00006142719999999999
88.00000000000000000000,-0.00005530610000000000
88.00000000000000000000,-0.00004269990000000000
88.00000000000000000000,-0.00003348390000000000
88.00000000000000000000,-0.00002976270000000000
88.00000000000000000000,-0.00002578660000000000
88.00000000000000000000,-0.00001549870000000000
88.00000000000000000000,-0.00000103342000000000
89.00000000000000000000,0.00001990920000000000
89.00000000000000000000,0.00005530910000000000
89.00000000000000000000,0.00010120600000000001
89.00000000000000000000,0.00014426700000000001
89.00000000000000000000,0.00017234600000000001
89.00000000000000000000,0.00018163599999999999
89.00000000000000000000,0.00017485100000000001
89.00000000000000000000,0.00015534199999999999
89.00000000000000000000,0.00012706100000000001
89.00000000000000000000,0.00009796509999999999
89.00000000000000000000,0.00007706189999999999
89.00000000000000000000,0.00006507100000000000
89.00000000000000000000,0.00005446640000000000
89.00000000000000000000,0.00004152470000000000
89.00000000000000000000,0.00002813960000000000
89.00000000000000000000,0.00001881770000000000
89.00000000000000000000,0.00001740380000000000
89.00000000000000000000,0.00001583050000000000
89.00000000000000000000,-0.00000099057500000000
89.00000000000000000000,-0.00002680010000000000
90.00000000000000000000,-0.00004183310000000000
90.00000000000000000000,-0.00004316250000000000
90.00000000000000000000,-0.00003807950000000000
90.00000000000000000000,-0.00002943240000000000
90.00000000000000000000,-0.00001706500000000000
90.00000000000000000000,-0.00000108976000000000
90.00000000000000000000,0.00001470700000000000
90.00000000000000000000,0.00002951230000000000
90.00000000000000000000,0.00004497690000000000
90.00000000000000000000,0.00005774190000000000
90.00000000000000000000,0.00006659840000000000
90.00000000000000000000,0.00007063170000000000
90.00000000000000000000,0.00007017430000000000
90.00000000000000000000,0.00006822730000000000
90.00000000000000000000,0.00006868359999999999
90.00000000000000000000,0.00007254550000000000
90.00000000000000000000,0.00007794940000000000
90.00000000000000000000,0.00008495310000000000
90.00000000000000000000,0.00009104650000000000
90.00000000000000000000,0.00008963500000000000
91.00000000000000000000,0.00007652010000000000
91.00000000000000000000,0.00005450030000000000
91.00000000000000000000,0.00002696380000000000
91.00000000000000000000,-0.00000233564000000000
91.00000000000000000000,-0.00002622150000000000
91.00000000000000000000,-0.00003523240000000000
91.00000000000000000000,-0.00002238170000000000
91.00000000000000000000,0.00000880300000000000
91.00000000000000000000,0.00004431600000000000
91.00000000000000000000,0.00007523479999999999
91.00000000000000000000,0.00009618430000000001
91.00000000000000000000,0.00009867610000000000
91.00000000000000000000,0.00007683780000000000
91.00000000000000000000,0.00004148690000000000
91.00000000000000000000,0.00000865656000000000
91.00000000000000000000,-0.00001943810000000000
91.00000000000000000000,-0.00003733030000000000
91.00000000000000000000,-0.00004170730000000000
91.00000000000000000000,-0.00003437440000000000
91.00000000000000000000,-0.00001536760000000000
92.00000000000000000000,0.00001727480000000000
92.00000000000000000000,0.00005867460000000000
92.00000000000000000000,0.00009753960000000000
92.00000000000000000000,0.00012559000000000000
92.00000000000000000000,0.00014015100000000001
92.00000000000000000000,0.00014231300000000000
92.00000000000000000000,0.00013242800000000000
92.00000000000000000000,0.00011087800000000000
92.00000000000000000000,0.00007886550000000001
92.00000000000000000000,0.00004183140000000000
92.00000000000000000000,0.00000631560000000000
92.00000000000000000000,-0.00002152130000000000
92.00000000000000000000,-0.00003864450000000000
92.00000000000000000000,-0.00004889170000000000
92.00000000000000000000,-0.00005675730000000000
92.00000000000000000000,-0.00005768460000000000
92.00000000000000000000,-0.00004862860000000000
92.00000000000000000000,-0.00003098940000000000
92.00000000000000000000,-0.00000134242000000000
92.00000000000000000000,0.00004302490000000000
93.00000000000000000000,0.00009468950000000000
93.00000000000000000000,0.00013738100000000000
93.00000000000000000000,0.00015318600000000001
93.00000000000000000000,0.00013590100000000001
93.00000000000000000000,0.00009953460000000000
93.00000000000000000000,0.00006469429999999999
93.00000000000000000000,0.00004680680000000000
93.00000000000000000000,0.00005349650000000000
93.00000000000000000000,0.00008183710000000000
93.00000000000000000000,0.00011896000000000000
93.00000000000000000000,0.00015162600000000000
93.00000000000000000000,0.00017084700000000001
93.00000000000000000000,0.00017004699999999999
93.00000000000000000000,0.00014722199999999999
93.00000000000000000000,0.00010909899999999999
93.00000000000000000000,0.00006846590000000000
93.00000000000000000000,0.00003626570000000000
93.00000000000000000000,0.00001710350000000000
93.00000000000000000000,0.00000805665000000000
93.00000000000000000000,0.00000078477000000000
94.00000000000000000000,-0.00000702714000000000
94.00000000000000000000,-0.00001172370000000000
94.00000000000000000000,-0.00001417180000000000
94.00000000000000000000,-0.00001613030000000000
94.00000000000000000000,-0.00001773840000000000
94.00000000000000000000,-0.00001761340000000000
94.00000000000000000000,-0.00001463330000000000
94.00000000000000000000,-0.00001012390000000000
94.00000000000000000000,-0.00000531483000000000
94.00000000000000000000,-0.00000194888000000000
94.00000000000000000000,-0.00000278624000000000
94.00000000000000000000,-0.00000881322000000000
94.00000000000000000000,-0.00002122210000000000
94.00000000000000000000,-0.00004010310000000000
94.00000000000000000000,-0.00005820500000000000
94.00000000000000000000,-0.00006435050000000000
94.00000000000000000000,-0.00005512030000000000
94.00000000000000000000,-0.00003624020000000000
94.00000000000000000000,-0.00001276730000000000
94.00000000000000000000,0.00001252480000000000
95.00000000000000000000,0.00003404210000000000
95.00000000000000000000,0.00004617280000000000
95.00000000000000000000,0.00005177720000000000
95.00000000000000000000,0.00005953320000000000
95.00000000000000000000,0.00007355060000000000
95.00000000000000000000,0.00008761390000000000
95.00000000000000000000,0.00009538950000000000
95.00000000000000000000,0.00010019700000000000
95.00000000000000000000,0.00010288900000000000
95.00000000000000000000,0.00009901670000000000
95.00000000000000000000,0.00009088510000000000
95.00000000000000000000,0.00008489680000000000
95.00000000000000000000,0.00008737270000000000
95.00000000000000000000,0.00009990910000000000
95.00000000000000000000,0.00011409600000000000
95.00000000000000000000,0.00012112000000000001
95.00000000000000000000,0.00011972900000000001
95.00000000000000000000,0.00011099600000000001
95.00000000000000000000,0.00009675480000000000
95.00000000000000000000,0.00008204520000000001
96.00000000000000000000,0.00006903610000000000
96.00000000000000000000,0.00005624260000000000
96.00000000000000000000,0.00004320810000000000
96.00000000000000000000,0.00003102170000000000
96.00000000000000000000,0.00002032110000000000
96.00000000000000000000,0.00001221120000000000
96.00000000000000000000,0.00000872739000000000
96.00000000000000000000,0.00000966873000000000
96.00000000000000000000,0.00001123450000000000
96.00000000000000000000,0.00000982125000000000
96.00000000000000000000,0.00000695974000000000
96.00000000000000000000,0.00000581396000000000
96.00000000000000000000,0.00000255653000000000
96.00000000000000000000,-0.00000826327000000000
96.00000000000000000000,-0.00002066400000000000
96.00000000000000000000,-0.00002619880000000000
96.00000000000000000000,-0.00002504820000000000
96.00000000000000000000,-0.00001816520000000000
96.00000000000000000000,-0.00001025130000000000
96.00000000000000000000,-0.00000400415000000000
97.00000000000000000000,0.00000294328000000000
97.00000000000000000000,0.00000829554000000000
97.00000000000000000000,0.00000946365000000000
97.00000000000000000000,0.00001004590000000000
97.00000000000000000000,0.00001958210000000000
97.00000000000000000000,0.00003972130000000000
97.00000000000000000000,0.00006317830000000000
97.00000000000000000000,0.00008174990000000000
97.00000000000000000000,0.00009256360000000000
97.00000000000000000000,0.00009560230000000000
97.00000000000000000000,0.00009165320000000000
97.00000000000000000000,0.00007915649999999999
97.00000000000000000000,0.00005583380000000000
97.00000000000000000000,0.00002626260000000000
97.00000000000000000000,-0.00000108877000000000
97.00000000000000000000,-0.00002179400000000000
97.00000000000000000000,-0.00003701480000000000
97.00000000000000000000,-0.00004565030000000000
97.00000000000000000000,-0.00004879740000000000
97.00000000000000000000,-0.00005300890000000000
98.00000000000000000000,-0.00005378950000000000
98.00000000000000000000,-0.00004196170000000000
98.00000000000000000000,-0.00002537040000000000
98.00000000000000000000,-0.00001292350000000000
98.00000000000000000000,-0.00000139714000000000
98.00000000000000000000,0.00001607080000000000
98.00000000000000000000,0.00004069870000000000
98.00000000000000000000,0.00007034920000000000
98.00000000000000000000,0.00010109800000000000
98.00000000000000000000,0.00012765600000000000
98.00000000000000000000,0.00014646599999999999
98.00000000000000000000,0.00015671200000000001
98.00000000000000000000,0.00016055200000000000
98.00000000000000000000,0.00016270600000000001
98.00000000000000000000,0.00016606800000000001
98.00000000000000000000,0.00017129100000000001
98.00000000000000000000,0.00017608800000000000
98.00000000000000000000,0.00017681800000000000
98.00000000000000000000,0.00017265000000000000
98.00000000000000000000,0.00016291799999999999
99.00000000000000000000,0.00014616400000000001
99.00000000000000000000,0.00012287600000000001
99.00000000000000000000,0.00009576040000000001
99.00000000000000000000,0.00006708990000000000
99.00000000000000000000,0.00004137540000000000
99.00000000000000000000,0.00002337200000000000
99.00000000000000000000,0.00001369040000000000
99.00000000000000000000,0.00000849084000000000
99.00000000000000000000,0.00000483862000000000
99.00000000000000000000,0.00000142808000000000
99.00000000000000000000,-0.00000202974000000000
99.00000000000000000000,-0.00000761275000000000
99.00000000000000000000,-0.00001953620000000000
99.00000000000000000000,-0.00003195820000000000
99.00000000000000000000,-0.00003362800000000000
99.00000000000000000000,-0.00002297660000000000
99.00000000000000000000,-0.00000462266000000000
99.00000000000000000000,0.00001464580000000000
99.00000000000000000000,0.00003017190000000000
99.00000000000000000000,0.00003969680000000000
100.00000000000000000000,0.00004236140000000000
100.00000000000000000000,0.00003819350000000000
100.00000000000000000000,0.00002819990000000000
100.00000000000000000000,0.00001672990000000000
100.00000000000000000000,0.00000996388000000000
100.00000000000000000000,0.00001004280000000000
100.00000000000000000000,0.00001103650000000000
100.00000000000000000000,0.00000785477000000000
100.00000000000000000000,-0.00000071862800000000
100.00000000000000000000,-0.00001783560000000000
100.00000000000000000000,-0.00004221980000000000
100.00000000000000000000,-0.00006145990000000000
100.00000000000000000000,-0.00006853340000000000
100.00000000000000000000,-0.00006827100000000000
100.00000000000000000000,-0.00006320920000000000
100.00000000000000000000,-0.00005102730000000000
100.00000000000000000000,-0.00003511640000000000
100.00000000000000000000,-0.00002507310000000000
100.00000000000000000000,-0.00002113170000000000
100.00000000000000000000,-0.00001327060000000000
101.00000000000000000000,0.00000561280000000000
101.00000000000000000000,0.00003454830000000000
101.00000000000000000000,0.00006723290000000000
101.00000000000000000000,0.00010152799999999999
101.00000000000000000000,0.00013677200000000001
101.00000000000000000000,0.00016995399999999999
101.00000000000000000000,0.00019836100000000001
101.00000000000000000000,0.00021758400000000000
101.00000000000000000000,0.00022149000000000000
101.00000000000000000000,0.00020887299999999999
101.00000000000000000000,0.00018246700000000001
101.00000000000000000000,0.00014514700000000001
101.00000000000000000000,0.00010515300000000000
101.00000000000000000000,0.00007460540000000000
101.00000000000000000000,0.00005704040000000000
101.00000000000000000000,0.00004839690000000000
101.00000000000000000000,0.00004659690000000000
101.00000000000000000000,0.00004870240000000000
101.00000000000000000000,0.00005009140000000000
101.00000000000000000000,0.00004970960000000000
102.00000000000000000000,0.00004831830000000000
102.00000000000000000000,0.00004281060000000000
102.00000000000000000000,0.00003410140000000000
102.00000000000000000000,0.00002607820000000000
102.00000000000000000000,0.00001779300000000000
102.00000000000000000000,0.00001144220000000000
102.00000000000000000000,0.00000932586000000000
102.00000000000000000000,0.00001202060000000000
102.00000000000000000000,0.00002002220000000000
102.00000000000000000000,0.00002353020000000000
102.00000000000000000000,0.00001675110000000000
102.00000000000000000000,0.00000693876000000000
102.00000000000000000000,0.00000197248000000000
102.00000000000000000000,0.00000396238000000000
102.00000000000000000000,0.00000971404000000000
102.00000000000000000000,0.00001336090000000000
102.00000000000000000000,0.00001135530000000000
102.00000000000000000000,0.00000522837000000000
102.00000000000000000000,0.00000016722700000000
102.00000000000000000000,0.00000041425800000000
103.00000000000000000000,0.00000379793000000000
103.00000000000000000000,0.00000664019000000000
103.00000000000000000000,0.00000924479000000000
103.00000000000000000000,0.00001248140000000000
103.00000000000000000000,0.00001588870000000000
103.00000000000000000000,0.00001798610000000000
103.00000000000000000000,0.00001904030000000000
103.00000000000000000000,0.00002209940000000000
103.00000000000000000000,0.00002179650000000000
103.00000000000000000000,0.00001273860000000000
103.00000000000000000000,0.00000287342000000000
103.00000000000000000000,0.00000044380600000000
103.00000000000000000000,0.00000142906000000000
103.00000000000000000000,-0.00000197585000000000
103.00000000000000000000,-0.00000893843000000000
103.00000000000000000000,-0.00001371400000000000
103.00000000000000000000,-0.00001415650000000000
103.00000000000000000000,-0.00001006860000000000
103.00000000000000000000,-0.00000138825000000000
103.00000000000000000000,0.00000925810000000000
104.00000000000000000000,0.00001505160000000000
104.00000000000000000000,0.00001057220000000000
104.00000000000000000000,-0.00000456977000000000
104.00000000000000000000,-0.00002515700000000000
104.00000000000000000000,-0.00004009800000000000
104.00000000000000000000,-0.00003538580000000000
104.00000000000000000000,-0.00000044350600000000
104.00000000000000000000,0.00006042140000000000
104.00000000000000000000,0.00012913200000000001
104.00000000000000000000,0.00018821899999999999
104.00000000000000000000,0.00022974000000000001
104.00000000000000000000,0.00025039000000000002
104.00000000000000000000,0.00024857900000000002
104.00000000000000000000,0.00022582000000000000
104.00000000000000000000,0.00018646900000000001
104.00000000000000000000,0.00014263500000000001
104.00000000000000000000,0.00010959700000000000
104.00000000000000000000,0.00009150540000000000
104.00000000000000000000,0.00007952010000000000
104.00000000000000000000,0.00006716110000000000
105.00000000000000000000,0.00006249590000000000
105.00000000000000000000,0.00007025560000000000
105.00000000000000000000,0.00008427610000000000
105.00000000000000000000,0.00009743760000000000
105.00000000000000000000,0.00010507800000000000
105.00000000000000000000,0.00010251699999999999
105.00000000000000000000,0.00009052220000000000
105.00000000000000000000,0.00007640359999999999
105.00000000000000000000,0.00006059060000000000
105.00000000000000000000,0.00004351140000000000
105.00000000000000000000,0.00002948960000000000
105.00000000000000000000,0.00002031950000000000
105.00000000000000000000,0.00001143420000000000
105.00000000000000000000,0.00000068173500000000
105.00000000000000000000,-0.00000795410000000000
105.00000000000000000000,-0.00001144940000000000
105.00000000000000000000,-0.00001039090000000000
105.00000000000000000000,-0.00000687418000000000
105.00000000000000000000,-0.00000527993000000000
105.00000000000000000000,-0.00000921050000000000
106.00000000000000000000,-0.00001520510000000000
106.00000000000000000000,-0.00002042180000000000
106.00000000000000000000,-0.00002571620000000000
106.00000000000000000000,-0.00003222510000000000
106.00000000000000000000,-0.00003992870000000000
106.00000000000000000000,-0.00004437810000000000
106.00000000000000000000,-0.00004443870000000000
106.00000000000000000000,-0.00004343680000000000
106.00000000000000000000,-0.00003723810000000000
106.00000000000000000000,-0.00002446730000000000
106.00000000000000000000,-0.00001200550000000000
106.00000000000000000000,-0.00000362588000000000
106.00000000000000000000,0.00000103122000000000
106.00000000000000000000,-0.00000435572000000000
106.00000000000000000000,-0.00002615250000000000
106.00000000000000000000,-0.00005491140000000000
106.00000000000000000000,-0.00007490830000000000
106.00000000000000000000,-0.00008598979999999999
106.00000000000000000000,-0.00009981060000000000
106.00000000000000000000,-0.00011523400000000000
107.00000000000000000000,-0.00011316599999999999
107.00000000000000000000,-0.00008028479999999999
107.00000000000000000000,-0.00002503500000000000
107.00000000000000000000,0.00003612130000000000
107.00000000000000000000,0.00009713460000000000
107.00000000000000000000,0.00016019799999999999
107.00000000000000000000,0.00022120100000000000
107.00000000000000000000,0.00027099900000000001
107.00000000000000000000,0.00030710399999999999
107.00000000000000000000,0.00032921099999999999
107.00000000000000000000,0.00033126800000000001
107.00000000000000000000,0.00030797600000000001
107.00000000000000000000,0.00026337799999999998
107.00000000000000000000,0.00021105300000000000
107.00000000000000000000,0.00016149900000000001
107.00000000000000000000,0.00012048000000000000
107.00000000000000000000,0.00009180720000000000
107.00000000000000000000,0.00007246740000000000
107.00000000000000000000,0.00005930290000000000
107.00000000000000000000,0.00004922920000000000
108.00000000000000000000,0.00003830250000000000
108.00000000000000000000,0.00002693830000000000
108.00000000000000000000,0.00001642860000000000
108.00000000000000000000,0.00000651268000000000
108.00000000000000000000,-0.00000235674000000000
108.00000000000000000000,-0.00000832691000000000
108.00000000000000000000,-0.00001116740000000000
108.00000000000000000000,-0.00001144870000000000
108.00000000000000000000,-0.00000938950000000000
108.00000000000000000000,-0.00000721888000000000
108.00000000000000000000,-0.00000691652000000000
108.00000000000000000000,-0.00000897779000000000
108.00000000000000000000,-0.00001289560000000000
108.00000000000000000000,-0.00001346620000000000
108.00000000000000000000,-0.00000760844000000000
108.00000000000000000000,-0.00000045470100000000
108.00000000000000000000,0.00000230566000000000
108.00000000000000000000,0.00000133048000000000
108.00000000000000000000,0.00000115778000000000
108.00000000000000000000,-0.00000094630300000000
109.00000000000000000000,-0.00000537279000000000
109.00000000000000000000,-0.00000593637000000000
109.00000000000000000000,-0.00000189295000000000
109.00000000000000000000,0.00000384483000000000
109.00000000000000000000,0.00000696308000000000
109.00000000000000000000,0.00000734849000000000
109.00000000000000000000,0.00000520311000000000
109.00000000000000000000,-0.00000085161600000000
109.00000000000000000000,-0.00000680516000000000
109.00000000000000000000,-0.00000798478000000000
109.00000000000000000000,-0.00000699331000000000
109.00000000000000000000,-0.00001261380000000000
109.00000000000000000000,-0.00002741250000000000
109.00000000000000000000,-0.00004141040000000000
109.00000000000000000000,-0.00004374220000000000
109.00000000000000000000,-0.00003577710000000000
109.00000000000000000000,-0.00002756730000000000
109.00000000000000000000,-0.00002272240000000000
109.00000000000000000000,-0.00001385990000000000
109.00000000000000000000,0.00000337585000000000
110.00000000000000000000,0.00002769300000000000
110.00000000000000000000,0.00005084460000000000
110.00000000000000000000,0.00005956490000000000
110.00000000000000000000,0.00005560190000000000
110.00000000000000000000,0.00005049340000000000
110.00000000000000000000,0.00004996140000000000
110.00000000000000000000,0.00005882300000000000
110.00000000000000000000,0.00007641650000000000
110.00000000000000000000,0.00009511839999999999
110.00000000000000000000,0.00010982700000000000
110.00000000000000000000,0.00011894000000000000
110.00000000000000000000,0.00012121200000000000
110.00000000000000000000,0.00011965200000000000
110.00000000000000000000,0.00011896300000000001
110.00000000000000000000,0.00011634800000000000
110.00000000000000000000,0.00010883300000000001
110.00000000000000000000,0.00009823450000000000
110.00000000000000000000,0.00008684690000000000
110.00000000000000000000,0.00007268340000000000
110.00000000000000000000,0.00005719770000000000
111.00000000000000000000,0.00004578090000000000
111.00000000000000000000,0.00004218540000000000
111.00000000000000000000,0.00004443920000000000
111.00000000000000000000,0.00004388230000000000
111.00000000000000000000,0.00003506270000000000
111.00000000000000000000,0.00002269180000000000
111.00000000000000000000,0.00001391360000000000
111.00000000000000000000,0.00001238180000000000
111.00000000000000000000,0.00001788260000000000
111.00000000000000000000,0.00002516620000000000
111.00000000000000000000,0.00002891970000000000
111.00000000000000000000,0.00002760920000000000
111.00000000000000000000,0.00002536890000000000
111.00000000000000000000,0.00002017210000000000
111.00000000000000000000,0.00001463280000000000
111.00000000000000000000,0.00002425580000000000
111.00000000000000000000,0.00005522670000000000
111.00000000000000000000,0.00009916360000000000
111.00000000000000000000,0.00013873200000000000
111.00000000000000000000,0.00015919600000000001
112.00000000000000000000,0.00015958500000000001
112.00000000000000000000,0.00014262800000000000
112.00000000000000000000,0.00011553500000000000
112.00000000000000000000,0.00008754790000000000
112.00000000000000000000,0.00006169440000000000
112.00000000000000000000,0.00003973720000000000
112.00000000000000000000,0.00002256970000000000
112.00000000000000000000,0.00000905442000000000
112.00000000000000000000,0.00000011395400000000
112.00000000000000000000,-0.00000321550000000000
112.00000000000000000000,-0.00000778269000000000
112.00000000000000000000,-0.00002523290000000000
112.00000000000000000000,-0.00006180210000000000
112.00000000000000000000,-0.00011029600000000000
112.00000000000000000000,-0.00015420899999999999
112.00000000000000000000,-0.00018358599999999999
112.00000000000000000000,-0.00020317900000000000
112.00000000000000000000,-0.00021354900000000000
112.00000000000000000000,-0.00019601600000000000
112.00000000000000000000,-0.00014044200000000001
113.00000000000000000000,-0.00006929209999999999
113.00000000000000000000,-0.00000594169000000000
113.00000000000000000000,0.00004706330000000000
113.00000000000000000000,0.00009984059999999999
113.00000000000000000000,0.00015755500000000001
113.00000000000000000000,0.00021638300000000001
113.00000000000000000000,0.00027566100000000002
113.00000000000000000000,0.00032920600000000002
113.00000000000000000000,0.00036406299999999997
113.00000000000000000000,0.00037410299999999998
113.00000000000000000000,0.00036254499999999998
113.00000000000000000000,0.00033201900000000002
113.00000000000000000000,0.00028553500000000001
113.00000000000000000000,0.00022965299999999999
113.00000000000000000000,0.00017479500000000000
113.00000000000000000000,0.00013085399999999999
113.00000000000000000000,0.00009928600000000000
113.00000000000000000000,0.00007494540000000000
113.00000000000000000000,0.00005250360000000000
113.00000000000000000000,0.00003108390000000000
114.00000000000000000000,0.00001365250000000000
114.00000000000000000000,0.00000160519000000000
114.00000000000000000000,-0.00000733345000000000
114.00000000000000000000,-0.00001499490000000000
114.00000000000000000000,-0.00002157080000000000
114.00000000000000000000,-0.00002642850000000000
114.00000000000000000000,-0.00002893840000000000
114.00000000000000000000,-0.00002794680000000000
114.00000000000000000000,-0.00002637880000000000
114.00000000000000000000,-0.00002740080000000000
114.00000000000000000000,-0.00002860700000000000
114.00000000000000000000,-0.00002724080000000000
114.00000000000000000000,-0.00002363230000000000
114.00000000000000000000,-0.00002364750000000000
114.00000000000000000000,-0.00002869710000000000
114.00000000000000000000,-0.00003150410000000000
114.00000000000000000000,-0.00002977550000000000
114.00000000000000000000,-0.00002796730000000000
114.00000000000000000000,-0.00002721570000000000
114.00000000000000000000,-0.00002244770000000000
115.00000000000000000000,-0.00001224610000000000
115.00000000000000000000,-0.00000051243600000000
115.00000000000000000000,0.00000998352000000000
115.00000000000000000000,0.00002047340000000000
115.00000000000000000000,0.00003085150000000000
115.00000000000000000000,0.00003671420000000000
115.00000000000000000000,0.00003412680000000000
115.00000000000000000000,0.00002257640000000000
115.00000000000000000000,0.00000586746000000000
115.00000000000000000000,-0.00000724855000000000
115.00000000000000000000,-0.00001172240000000000
115.00000000000000000000,-0.00001194940000000000
115.00000000000000000000,-0.00000885073000000000
115.00000000000000000000,-0.00000080409200000000
115.00000000000000000000,0.00000488447000000000
115.00000000000000000000,0.00000256016000000000
115.00000000000000000000,0.00000451075000000000
115.00000000000000000000,0.00001927040000000000
115.00000000000000000000,0.00003900210000000000
115.00000000000000000000,0.00005330340000000000
116.00000000000000000000,0.00006101520000000000
116.00000000000000000000,0.00006705140000000001
116.00000000000000000000,0.00007394390000000000
116.00000000000000000000,0.00008275450000000000
116.00000000000000000000,0.00008656050000000001
116.00000000000000000000,0.00008056899999999999
116.00000000000000000000,0.00007092119999999999
116.00000000000000000000,0.00006403249999999999
116.00000000000000000000,0.00005715100000000000
116.00000000000000000000,0.00004670500000000000
116.00000000000000000000,0.00003664190000000000
116.00000000000000000000,0.00003171190000000000
116.00000000000000000000,0.00003068710000000000
116.00000000000000000000,0.00003053470000000000
116.00000000000000000000,0.00003204410000000000
116.00000000000000000000,0.00003488100000000000
116.00000000000000000000,0.00003347000000000000
116.00000000000000000000,0.00002756800000000000
116.00000000000000000000,0.00002488010000000000
116.00000000000000000000,0.00002440680000000000
117.00000000000000000000,0.00002407080000000000
117.00000000000000000000,0.00002417230000000000
117.00000000000000000000,0.00002283830000000000
117.00000000000000000000,0.00002398560000000000
117.00000000000000000000,0.00002568180000000000
117.00000000000000000000,0.00001714460000000000
117.00000000000000000000,-0.00000002622480000000
117.00000000000000000000,-0.00001374720000000000
117.00000000000000000000,-0.00002182010000000000
117.00000000000000000000,-0.00002893180000000000
117.00000000000000000000,-0.00003577830000000000
117.00000000000000000000,-0.00004333690000000000
117.00000000000000000000,-0.00005569320000000000
117.00000000000000000000,-0.00007431570000000000
117.00000000000000000000,-0.00009252100000000000
117.00000000000000000000,-0.00009666089999999999
117.00000000000000000000,-0.00007582040000000000
117.00000000000000000000,-0.00003112400000000000
117.00000000000000000000,0.00002564340000000000
117.00000000000000000000,0.00008033439999999999
118.00000000000000000000,0.00012087999999999999
118.00000000000000000000,0.00014368599999999999
118.00000000000000000000,0.00016163300000000000
118.00000000000000000000,0.00018991500000000000
118.00000000000000000000,0.00022344899999999999
118.00000000000000000000,0.00024806900000000001
118.00000000000000000000,0.00026475199999999999
118.00000000000000000000,0.00027830500000000001
118.00000000000000000000,0.00027793600000000000
118.00000000000000000000,0.00025777200000000002
118.00000000000000000000,0.00022336400000000001
118.00000000000000000000,0.00018288700000000001
118.00000000000000000000,0.00014631900000000001
118.00000000000000000000,0.00011698400000000000
118.00000000000000000000,0.00009349470000000000
118.00000000000000000000,0.00007296650000000000
118.00000000000000000000,0.00005493330000000000
118.00000000000000000000,0.00003898230000000000
118.00000000000000000000,0.00002378450000000000
118.00000000000000000000,0.00000971892000000000
119.00000000000000000000,-0.00000237767000000000
119.00000000000000000000,-0.00001483440000000000
119.00000000000000000000,-0.00002992100000000000
119.00000000000000000000,-0.00004705310000000000
119.00000000000000000000,-0.00006808500000000000
119.00000000000000000000,-0.00009440810000000000
119.00000000000000000000,-0.00011525300000000000
119.00000000000000000000,-0.00011465900000000000
119.00000000000000000000,-0.00009181370000000000
119.00000000000000000000,-0.00006070210000000000
119.00000000000000000000,-0.00003605520000000000
119.00000000000000000000,-0.00002386480000000000
119.00000000000000000000,-0.00002167200000000000
119.00000000000000000000,-0.00002013830000000000
119.00000000000000000000,-0.00001188920000000000
119.00000000000000000000,0.00000323665000000000
119.00000000000000000000,0.00002679150000000000
119.00000000000000000000,0.00005814370000000000
119.00000000000000000000,0.00009006190000000000
119.00000000000000000000,0.00011445100000000001
120.00000000000000000000,0.00011754400000000000
120.00000000000000000000,0.00009731020000000000
120.00000000000000000000,0.00007405870000000000
120.00000000000000000000,0.00006562999999999999
120.00000000000000000000,0.00007255299999999999
120.00000000000000000000,0.00008217060000000000
120.00000000000000000000,0.00008317530000000000
120.00000000000000000000,0.00008040250000000000
120.00000000000000000000,0.00008340430000000000
120.00000000000000000000,0.00008957660000000000
120.00000000000000000000,0.00009051540000000000
120.00000000000000000000,0.00008470570000000000
120.00000000000000000000,0.00007501080000000000
120.00000000000000000000,0.00006258910000000000
120.00000000000000000000,0.00004724660000000000
120.00000000000000000000,0.00002186960000000000
120.00000000000000000000,-0.00001983000000000000
120.00000000000000000000,-0.00007604060000000000
120.00000000000000000000,-0.00014259799999999999
120.00000000000000000000,-0.00021174099999999999
121.00000000000000000000,-0.00027105500000000003
121.00000000000000000000,-0.00029862200000000002
121.00000000000000000000,-0.00027294899999999998
121.00000000000000000000,-0.00020366399999999999
121.00000000000000000000,-0.00011688900000000000
121.00000000000000000000,-0.00002953920000000000
121.00000000000000000000,0.00004993640000000000
121.00000000000000000000,0.00012104900000000000
121.00000000000000000000,0.00018761400000000001
121.00000000000000000000,0.00025088500000000001
121.00000000000000000000,0.00030502799999999999
121.00000000000000000000,0.00034164800000000001
121.00000000000000000000,0.00035724200000000002
121.00000000000000000000,0.00035752899999999998
121.00000000000000000000,0.00034955199999999999
121.00000000000000000000,0.00033387800000000002
121.00000000000000000000,0.00031081600000000000
121.00000000000000000000,0.00028190900000000000
121.00000000000000000000,0.00024723699999999998
121.00000000000000000000,0.00020836699999999999
122.00000000000000000000,0.00017004200000000000
122.00000000000000000000,0.00013277300000000001
122.00000000000000000000,0.00009612140000000000
122.00000000000000000000,0.00006436370000000000
122.00000000000000000000,0.00003787100000000000
122.00000000000000000000,0.00001365580000000000
122.00000000000000000000,-0.00000751074000000000
122.00000000000000000000,-0.00002255140000000000
122.00000000000000000000,-0.00003123530000000000
122.00000000000000000000,-0.00003699970000000000
122.00000000000000000000,-0.00004258920000000000
122.00000000000000000000,-0.00004671800000000000
122.00000000000000000000,-0.00004831770000000000
122.00000000000000000000,-0.00004784060000000000
122.00000000000000000000,-0.00004580250000000000
122.00000000000000000000,-0.00004391420000000000
122.00000000000000000000,-0.00004432240000000000
122.00000000000000000000,-0.00005231010000000000
122.00000000000000000000,-0.00006718489999999999
122.00000000000000000000,-0.00008047880000000000
123.00000000000000000000,-0.00008682580000000000
123.00000000000000000000,-0.00008568530000000000
123.00000000000000000000,-0.00008001620000000000
123.00000000000000000000,-0.00007089490000000000
123.00000000000000000000,-0.00005634630000000000
123.00000000000000000000,-0.00003381980000000000
123.00000000000000000000,-0.00000451493000000000
123.00000000000000000000,0.00002486770000000000
123.00000000000000000000,0.00004301940000000000
123.00000000000000000000,0.00004207380000000000
123.00000000000000000000,0.00002473520000000000
123.00000000000000000000,0.00000249863000000000
123.00000000000000000000,-0.00001334040000000000
123.00000000000000000000,-0.00002129610000000000
123.00000000000000000000,-0.00002838470000000000
123.00000000000000000000,-0.00003544370000000000
123.00000000000000000000,-0.00003372430000000000
123.00000000000000000000,-0.00002433770000000000
123.00000000000000000000,-0.00001782480000000000
123.00000000000000000000,-0.00002079220000000000
124.00000000000000000000,-0.00003159750000000000
124.00000000000000000000,-0.00003928880000000000
124.00000000000000000000,-0.00003438500000000000
124.00000000000000000000,-0.00001981150000000000
124.00000000000000000000,-0.00000463445000000000
124.00000000000000000000,0.00000865139000000000
124.00000000000000000000,0.00002219380000000000
124.00000000000000000000,0.00003344870000000000
124.00000000000000000000,0.00003618040000000000
124.00000000000000000000,0.00003498870000000000
124.00000000000000000000,0.00004521240000000000
124.00000000000000000000,0.00007168040000000001
124.00000000000000000000,0.00010324400000000000
124.00000000000000000000,0.00012683500000000000
124.00000000000000000000,0.00013657099999999999
124.00000000000000000000,0.00013347500000000001
124.00000000000000000000,0.00012605200000000001
124.00000000000000000000,0.00012593000000000001
124.00000000000000000000,0.00014036600000000000
124.00000000000000000000,0.00016298300000000001
125.00000000000000000000,0.00017575699999999999
125.00000000000000000000,0.00017285299999999999
125.00000000000000000000,0.00016793999999999999
125.00000000000000000000,0.00016341100000000000
125.00000000000000000000,0.00014740900000000001
125.00000000000000000000,0.00012224800000000001
125.00000000000000000000,0.00009811570000000000
125.00000000000000000000,0.00007869480000000000
125.00000000000000000000,0.00006260759999999999
125.00000000000000000000,0.00004995660000000000
125.00000000000000000000,0.00004321920000000000
125.00000000000000000000,0.00004254570000000000
125.00000000000000000000,0.00004651680000000000
125.00000000000000000000,0.00005157960000000000
125.00000000000000000000,0.00005376200000000000
125.00000000000000000000,0.00005163280000000000
125.00000000000000000000,0.00004806670000000000
125.00000000000000000000,0.00004240310000000000
125.00000000000000000000,0.00003230710000000000
125.00000000000000000000,0.00001945570000000000
126.00000000000000000000,0.00000680969000000000
126.00000000000000000000,-0.00000383203000000000
126.00000000000000000000,-0.00001163640000000000
126.00000000000000000000,-0.00001710590000000000
126.00000000000000000000,-0.00002360830000000000
126.00000000000000000000,-0.00004104680000000000
126.00000000000000000000,-0.00007652260000000000
126.00000000000000000000,-0.00011064000000000000
126.00000000000000000000,-0.00012471499999999999
126.00000000000000000000,-0.00013346199999999999
126.00000000000000000000,-0.00015010699999999999
126.00000000000000000000,-0.00015989699999999999
126.00000000000000000000,-0.00015103900000000000
126.00000000000000000000,-0.00012652799999999999
126.00000000000000000000,-0.00008739330000000000
126.00000000000000000000,-0.00003158850000000000
126.00000000000000000000,0.00002783020000000000
126.00000000000000000000,0.00007241470000000000
126.00000000000000000000,0.00009866690000000000
126.00000000000000000000,0.00010881400000000001
127.00000000000000000000,0.00010164100000000000
127.00000000000000000000,0.00007789210000000000
127.00000000000000000000,0.00004811970000000000
127.00000000000000000000,0.00002134730000000000
127.00000000000000000000,0.00000530869000000000
127.00000000000000000000,0.00001509720000000000
127.00000000000000000000,0.00006071690000000000
127.00000000000000000000,0.00012977799999999999
127.00000000000000000000,0.00020100200000000001
127.00000000000000000000,0.00026023799999999998
